,X,v,theta,theta_dot,energy
0,0.0,0.0,-0.17453292519943295,0.0,0.0
1,0.0,0.4081449326562281,-0.17453292519943295,-0.6539690052828259,0.005159049083268592
2,0.008162898653124561,0.39726543760777955,-0.18761230530508946,-0.6889502529080482,0.01012479926848227
3,0.016108207405280153,0.42668102453622986,-0.20139131036325042,-0.7871343806421583,0.06282033267302015
4,0.024641827896004748,0.27334604887842573,-0.2171339979760936,-0.6205900648217517,0.038160248887487154
5,0.030108748873573263,0.12534568610636068,-0.22954579927252863,-0.46713929165639534,0.01261129108247336
6,0.03261566259570048,0.011383640848075097,-0.23888858510565653,-0.36757545388175705,0.0007119739654230552
7,0.03284333541266198,-0.12843498089624888,-0.24624009418329168,-0.2333706057234083,0.014420145600173743
8,0.030274635794737003,-0.2260515862582429,-0.2509075062977598,-0.16302769457261673,0.009256099557717296
9,0.025753604069572146,-0.1840789704973796,-0.2541680601892122,-0.2970104635562847,0.02456181795373708
10,0.022072024659624555,-0.3016213641624818,-0.2601082694603379,-0.2002847760536004,0.024967524002965067
11,0.01603959737637492,-0.3761773842574232,-0.2641139649814099,-0.1678250467148839,0.008198531321430053
12,0.008516049691226456,-0.39333959942027513,-0.26747046591570756,-0.21972428827654053,0.053862008122243746
13,0.0006492577028209528,-0.5194556657953252,-0.27186495168123836,-0.11497879546679612,0.032674257027164894
14,-0.009739855613085551,-0.45530998551531576,-0.2741645275905743,-0.2866107180793659,0.08944990326207937
15,-0.01884605532339187,-0.6371524167977504,-0.27989674195216163,-0.10363269322657528,0.007714047091122762
16,-0.031589103659346876,-0.6450320324912483,-0.2819693958166931,-0.17349261939014188,0.10500440412848148
17,-0.04448974430917184,-0.7973211209313003,-0.28543924820449595,-0.035884842061578354,0.0512082154798413
18,-0.06043616672779784,-0.8556443731315752,-0.28615694504572753,-0.03472398388939815,0.05220616070149883
19,-0.07754905419042935,-0.7927075355763722,-0.2868514247235155,-0.2082769754523564,0.17672873209180798
20,-0.09340320490195679,-1.0026417172326394,-0.2910169642325626,0.010574752333248227,0.04463083472010826
21,-0.11345603924660957,-1.0419107784895105,-0.29080546918589767,-0.01735481361773393,0.07013789345067867
22,-0.13429425481639978,-1.1032297482835542,-0.29115256545825235,-0.01353508296577326,0.09654079177996919
23,-0.15635884978207087,-1.184126012242047,-0.29142326711756783,0.018307768249102668,0.12365698656360564
24,-0.1800413700269118,-1.2815413949336674,-0.29105711175258575,0.07379886013959548,0.1408783420371814
25,-0.20567219792558517,-1.3844974358264521,-0.28958113454979384,0.13736986746373311,0.24127184121237133
26,-0.23336214664211422,-1.5503431624381014,-0.2868337372005192,0.29182867815843044,0.2764605999298518
27,-0.26436900989087625,-1.7208897968077808,-0.28099716363735056,0.4540194471669544,0.3683083453881881
28,-0.2987868058270319,-1.9272025388528458,-0.2719167746940115,0.6698207233353861,0.7307876459072974
29,-0.3373308566040888,-2.2973310534603018,-0.25852036022730374,1.125652512382218,1.348633352989207
30,-0.38327747767329484,-2.8766977128557665,-0.23600730997965938,1.8906621614387222,0.14951295861686226
31,-0.44081143193041017,-2.822240832087714,-0.19819406675088494,1.7424974020886208,0.1864443610698109
32,-0.49725624857216444,-2.8861552213652506,-0.16334411870911253,1.7786038537043547,0.32101799412933507
33,-0.5549793529994694,-2.772967902330088,-0.12777204163502542,1.5632729300977832,0.5517822867949338
34,-0.6104387110460712,-2.5724920669722517,-0.09650658303306976,1.227547668554777,0.13609318793485975
35,-0.6618885523855162,-2.623976337377274,-0.07195562966197422,1.2760858144013827,0.31268372046154813
36,-0.7143680791330618,-2.504226583348343,-0.04643391337394656,1.0757892916489338,0.0989898898368547
37,-0.7644526108000287,-2.542940452744178,-0.024918127540967887,1.1201508381685328,0.6460563919206789
38,-0.8153114198549123,-2.289699385900471,-0.0025151107775972306,0.7330819909261678,0.4802631339348603
39,-0.8611054075729218,-2.4973200611407034,0.012146529040926125,1.0437725769756314,0.7370141544542348
40,-0.9110518087957358,-2.203986215958194,0.03302198058043875,0.6073752589832636,0.3158405891200731
41,-0.9551315331148996,-2.346017401531805,0.045169485760104024,0.8300125872938047,0.3856141592042234
42,-1.0020518811455357,-2.1836803287614472,0.06176973750598012,0.6000306595224316,0.06153864686931689
43,-1.0457254877207647,-2.2123750066738963,0.07377035069642875,0.6611393456676495,0.179356992145126
44,-1.0899729878542426,-2.13325102239381,0.08699313760978174,0.5644449879620836,0.29176543224375867
45,-1.1326380083021188,-1.9994874709682162,0.09828203736902341,0.39010214024421364,0.001569533390416607
46,-1.1726277577214832,-2.0016444706676575,0.10608408017390769,0.4221704496580315,0.02332479145094266
47,-1.2126606471348365,-1.9916662889326593,0.11452748916706833,0.43841757139892007,0.3307894880807779
48,-1.2524939729134896,-1.8297658446395453,0.12329584059504672,0.23075536781547615,0.035921045754126364
49,-1.2890892898062805,-1.8122669691179787,0.12791094795135624,0.2408635184767129,0.03367552244927065
50,-1.32533462918864,-1.7958557617255912,0.1327282183208905,0.25395116981822097,0.03872671255541391
51,-1.361251744423152,-1.8188725590125354,0.13780724171725492,0.32708032367065776,0.29989301686360764
52,-1.3976291956034026,-1.658861115770613,0.14434884819066807,0.12972583172084517,0.06915875424847402
53,-1.430806417918815,-1.620141698621228,0.14694336482508497,0.1145420772162699,0.08455630321918257
54,-1.4632092518912394,-1.5712136574376705,0.14923420636941037,0.08498699159502993,0.09046600005659927
55,-1.494633525039993,-1.6295365892093148,0.15093394620131098,0.21521120288706833,0.292003339854982
56,-1.5272242568241792,-1.4560817037546703,0.15523817025905234,0.002193155587064455,0.21678734036511266
57,-1.5563458908992727,-1.6032775247896451,0.15528203337079363,0.2657887142898487,0.5889209111130963
58,-1.5884114413950656,-1.2450344025980828,0.1605978076565906,-0.21964069973400457,0.5151037687043543
59,-1.6133121294470272,-1.647003196171556,0.1562049936619105,0.4225666627157806,0.7501468737852668
60,-1.6462521933704584,-1.200442841737753,0.16465632691622611,-0.19338068027659983,0.2507774417565364
61,-1.6702610502052133,-1.4047010759646714,0.1607887133106941,0.15705321923738036,0.3352715274182227
62,-1.6983550717245068,-1.1733669917996081,0.1639297776954417,-0.13840359239513256,0.05709457341538328
63,-1.721822411560499,-1.1285382940468045,0.16116170584753906,-0.1567653645323005,0.002726138042012932
64,-1.744393177441435,-1.1284639499191926,0.15802639855689304,-0.10969873547672368,0.053242692046667546
65,-1.7669624564398188,-1.08493899047293,0.15583242384735857,-0.12790604522219592,0.1443073820617902
66,-1.7886612362492773,-0.9582765551156178,0.15327430294291466,-0.2699679520585333,0.10604414798740877
67,-1.8078267673515898,-1.066856896686486,0.147874943901744,-0.0641204472586252,0.2461423932789186
68,-1.8291639052853195,-0.8448154904143979,0.14659253495657149,-0.3502306920334872,0.11269059494514529
69,-1.8460602150936074,-0.9744226007810042,0.13958792111590174,-0.1149611577648709,0.05699435020913518
70,-1.8655486671092274,-0.919711992395449,0.1372886979606043,-0.15532314288404078,0.25371141630083155
71,-1.8839429069571363,-0.6549161114640696,0.13418223510292349,-0.5085434461920861,0.2581108340585044
72,-1.8970412291864176,-1.0277926846196899,0.12401136617908176,0.08507507043840856,0.20494339086159402
73,-1.9175970828788114,-0.834501534363275,0.12571286758784994,-0.16626910524310012,0.05943782929900539
74,-1.9342871135660769,-0.7674897921862158,0.12238748548298795,-0.22913117752074175,0.1249766150353156
75,-1.9496369094098012,-0.6126355447871592,0.11780486193257311,-0.4237829219631336,0.09947758977449157
76,-1.9618896203055443,-0.7677491354827466,0.10932920349331043,-0.15817059257560756,0.14356867068677082
77,-1.977244603015199,-0.5887022933413819,0.10616579164179828,-0.39305856961402463,0.10342496108233039
78,-1.9890186488820267,-0.7564347968463461,0.09830462024951778,-0.11172224817858412,0.1484188833801861
79,-2.0041473448189535,-0.5678150059355906,0.0960701752859461,-0.3644309163733867,0.09401277400625696
80,-2.0155036449376653,-0.7260366592634535,0.08878155695847836,-0.0999916174201469,0.04830851969721831
81,-2.0300243781229343,-0.662826589700818,0.08678172461007543,-0.16836579150015574,0.08789132657046948
82,-2.043280909916951,-0.5362368248494747,0.08341440878007231,-0.33205405563308743,0.10518458307607942
83,-2.0540056464139402,-0.7234698723035353,0.07677332766741056,-0.027685581846698226,0.1048233941802375
84,-2.068475043860011,-0.5835156291421573,0.0762196160304766,-0.2144493758534897,0.05397431963730421
85,-2.0801453564428543,-0.6733266812070795,0.0719306285134068,-0.05773704502557028,0.07978994243825198
86,-2.0936118900669958,-0.5592345118767422,0.0707758876128954,-0.20730338074625307,0.057586769307122275
87,-2.1047965803045305,-0.6590085501733915,0.06662981999797034,-0.03722626668530127,0.15991418557232584
88,-2.1179767513079986,-0.4239022016943873,0.06588529466426431,-0.3695285813576213,0.16040897949027363
89,-2.1264547953418864,-0.7798587852109766,0.05849472303711188,0.1826041072674574,0.17285106937345016
90,-2.142051971046106,-0.5621882554642582,0.06214680518246103,-0.12615561214431542,0.07735589335449301
91,-2.1532957361553913,-0.4302246817658527,0.05962369293957472,-0.30545943913532697,0.11247914969846166
92,-2.1619002297907084,-0.6781121160470637,0.05351450415686818,0.08322996248936632,0.15396379772967989
93,-2.17546247211165,-0.45617339032475945,0.05517910340665551,-0.23347579259028767,0.04536410175384263
94,-2.184585939918145,-0.5517555491366462,0.05050958755484976,-0.07410634026780014,0.010989921047168245
95,-2.195621050900878,-0.5331673739172201,0.049027460749493754,-0.08710953842843272,0.04936695791550056
96,-2.206284398379222,-0.4442162669478241,0.047285269980925096,-0.2059675730532599,0.05048616592562113
97,-2.2151687237181785,-0.5534674478542677,0.043165918519859896,-0.02837728390179378,0.05792455117294807
98,-2.226238072675264,-0.4522317588062501,0.04259837284182402,-0.16740252606173917,0.021523114806514046
99,-2.235282707851389,-0.49849923457067774,0.03925032232058924,-0.08554413709315237,0.009244355829351437
100,-2.2452526925428025,-0.5170113426728643,0.03753943957872619,-0.046260729809256024,0.10497229597487259
101,-2.2555929193962596,-0.320286607548362,0.03661422498254107,-0.330105933861069,0.14141782185093502
102,-2.261998651547227,-0.7322658263842021,0.03001210630531969,0.2982108928433598,0.2927242068225668
103,-2.276643968074911,-0.3353668486765453,0.035976324162186886,-0.28804723605418814,0.08337496073572917
104,-2.2833513050484417,-0.569293344480766,0.030215379441103123,0.07319021237976259,0.09295434996230456
105,-2.294737171938057,-0.40950320821416797,0.031679183688698376,-0.15750361782721528,0.050207157514307134
106,-2.3029272361023403,-0.5275081238348341,0.02852911133215407,0.028727065586569317,0.012626830581726131
107,-2.313477398579037,-0.504507542975292,0.029103652643885456,0.002626654641761716,0.04454719452860859
108,-2.323567549438543,-0.41876487710042964,0.02915618573672069,-0.11737761252617021,0.029368539068363876
109,-2.331942846980551,-0.4867385473078398,0.026808633486197286,-0.006889737415459854,0.017370179585302153
110,-2.341677617926708,-0.4523305573841717,0.02667083873788809,-0.05060238239768507,0.04849825827841974
111,-2.350724229074391,-0.3486437139756157,0.025658791089934387,-0.19823703683415345,0.06187988072401105
112,-2.357697103353903,-0.5177995155774112,0.021694050353251317,0.06295600121781664,0.057259240920359264
113,-2.3680530936654516,-0.4096300368391748,0.02295317037760765,-0.09288248685788492,0.005622946426601117
114,-2.376245694402235,-0.42321388748674876,0.02109552064044995,-0.06576443856176578,0.01894316955285155
115,-2.38470997215197,-0.46687717197711226,0.019780231869214633,0.0059175384746223275,0.039726521231004314
116,-2.394047515591512,-0.3841007833218426,0.01989858263870708,-0.11240774617570738,0.07198184355285643
117,-2.401729531257949,-0.5648135618550458,0.01765042771519293,0.16445755522619676,0.077154310263408
118,-2.41302580249505,-0.43001246264665416,0.020939578819716864,-0.03252364138339564,0.06542755317326072
119,-2.421626051747983,-0.2823842240050839,0.02028910599204895,-0.247761667351907,0.04494208904253108
120,-2.4272737362280847,-0.4319858903073879,0.01533387264501081,-0.01744076579039433,0.020888360767666536
121,-2.4359134540342327,-0.38511807697961165,0.014985057329202923,-0.0832262391106285,0.013373212895141144
122,-2.443615815573825,-0.41888079988632354,0.013320532546990354,-0.028182398782561888,0.014912034515737528
123,-2.4519934315715513,-0.3844467087888514,0.012756884571339116,-0.07591283233991689,0.029292199917708518
124,-2.4596823657473283,-0.4583022467053877,0.011238627924540778,0.03861188266375115,0.04538642742733049
125,-2.468848410681436,-0.3614766499935693,0.012010865577815801,-0.10331325315110149,0.06181895907506852
126,-2.4760779436813074,-0.5263540715294264,0.009944600514793771,0.1475161499225013,0.07891330602377913
127,-2.486605025111896,-0.37834262630413057,0.012894923513243797,-0.0715663754417388,0.042529142600925045
128,-2.494171877637979,-0.48725871496493156,0.011463596004409021,0.09558517733980207,0.02901131492489027
129,-2.5039170519372775,-0.4288133249566207,0.013375299551205063,0.01129307608096601,0.024585655523537073
130,-2.5124933184364098,-0.3730030464331169,0.013601161072824382,-0.06848263270802961,0.022131756045397383
131,-2.519953379365072,-0.43060500545122526,0.01223150841866379,0.021910932101804073,0.03964926903411456
132,-2.5285654794740964,-0.34074090052997597,0.012669727060699871,-0.1092791681847962,0.04799623901466542
133,-2.535380297484696,-0.4763693278520677,0.010484143697003947,0.09787194461053388,0.04637619325862194
134,-2.5449076840417373,-0.3806460894657542,0.012441582589214625,-0.04262274003331053,0.00582547320253906
135,-2.5525206058310523,-0.3956796039311752,0.011589127788548413,-0.016416482710164916,0.00019409620075162858
136,-2.5604341979096756,-0.39536812045965997,0.011260798134345116,-0.013476549240478945,0.00680931666622964
137,-2.568341560318869,-0.41230611184744115,0.010991267149535537,0.01523943166769109,0.007971674267461554
138,-2.5765876825558176,-0.39356936175866725,0.011296055782889359,-0.009632628342670408,0.010507579319346313
139,-2.584459069790991,-0.3677135435713383,0.01110340321603595,-0.04509291145850667,0.07142780485796107
140,-2.591813340662418,-0.5563313379629093,0.010201544986865818,0.24108067339015285,0.1730531060049112
141,-2.602939967421676,-0.24690783044108516,0.015023158454668875,-0.22003123426736468,0.07471051969561956
142,-2.607878124030498,-0.5308310553005366,0.010622533769321582,0.2102221862701961,0.1071764716018595
143,-2.6184947451365086,-0.3303953510308776,0.014826977494725505,-0.08729144149142284,0.037961810356754645
144,-2.625102652157126,-0.44137172878006936,0.013081148664897048,0.08351379941103607,0.028354426621067543
145,-2.6339300867327275,-0.37834161298605873,0.014751424653117769,-0.00717753725123417,0.019583290134224367
146,-2.641496918992449,-0.32809903555128667,0.014607873908093085,-0.0781964422319094,0.031777585239496725
147,-2.6480588997034746,-0.4217857239779299,0.013043945063454897,0.06661315901333327,0.07019433115206826
148,-2.6564946141830332,-0.2584381713596562,0.014376208243721562,-0.17455251459236976,0.0722274003805995
149,-2.6616633776102265,-0.5231790543965491,0.010885157951874166,0.22674423374202912,0.12249579648457859
150,-2.6721269586981573,-0.29031987713494245,0.015420042626714748,-0.11932366608377343,0.004676266764871367
151,-2.6779333562408563,-0.27511477445179955,0.01303356930503928,-0.13759529571248405,0.05902799993986002
152,-2.683435651729892,-0.47997090358105743,0.010281663390789599,0.17349455945173395,0.07372138705199002
153,-2.693035069801513,-0.32776688955879796,0.013751554579824278,-0.05177663849717867,0.004536466870355535
154,-2.699590407592689,-0.3413705558598629,0.012716021809880705,-0.027330238785144678,0.002420526527405121
155,-2.706417818709886,-0.34844539985665063,0.012169417034177812,-0.012980421103505295,0.020211120674932654
156,-2.7133867267070193,-0.29212719945756577,0.011909808612107706,-0.0938737461590099,0.061350873369537325
157,-2.7192292706961707,-0.49423821383318756,0.010032333688927508,0.21277267550748336,0.1568428131796578
158,-2.7291140349728344,-0.17860256822574244,0.014287787199077175,-0.2577075104696875,0.0756130601095011
159,-2.7326860863373494,-0.5664136543461034,0.009133636989683426,0.3281502101722206,0.17907225280693398
160,-2.7440143594242716,-0.2497641473787811,0.015696641193127837,-0.14411898651136407,0.03380281970513642
161,-2.7490096423718473,-0.3786503164561421,0.012814261462900555,0.05380107393364353,0.054823445587143076
162,-2.75658264870097,-0.23666250048378987,0.013890282941573425,-0.15539587413393244,0.041475464069172435
163,-2.761315898710646,-0.40288136121924145,0.010782365458894777,0.0979919765272371,0.032155692148137134
164,-2.769373525935031,-0.3242984960080607,0.012742204989439518,-0.016705515336805962,0.02155513587002703
165,-2.775859495855192,-0.3891747932777857,0.012408094682703399,0.08434713739659841,0.025885217083231552
166,-2.7836429917207477,-0.32381698247569674,0.014095037430635367,-0.010034145767286451,0.008623190676992189
167,-2.7901193313702617,-0.34996250000617407,0.013894354515289638,0.033324038636999766,0.019837900111874425
168,-2.7971185813703854,-0.29461891652682715,0.014560835288029634,-0.045598514729980257,0.0018266047675626598
169,-2.803010959700922,-0.3008340064091965,0.01364886499343003,-0.031996133866268615,0.030440921409146435
170,-2.8090276398291056,-0.399273867110069,0.013008942316104657,0.11966254523393283,0.08751695555913158
171,-2.817013117171307,-0.18266565488866265,0.015402193220783313,-0.2013977594443756,0.05951222498526625
172,-2.8206664302690805,-0.48556507816230654,0.0113742380318958,0.2574255502356729,0.1868372082768876
173,-2.8303777318323267,-0.101064183545511,0.016522749036609257,-0.3159445301049643,0.06083253999737667
174,-2.832399015503237,-0.6154701681232002,0.01020385843450997,0.4604165912495793,0.31494570451940856
175,-2.844708418865701,-0.09881245218701151,0.019412190259501555,-0.31152975537522926,0.02739046231616777
176,-2.8466846679094413,-0.3356245698318696,0.01318159515199697,0.04932831970541374,0.01787265968911031
177,-2.8533971593060787,-0.2835117267831572,0.014168161546105245,-0.02495887708918927,0.001611983719035958
178,-2.859067393841742,-0.2781899710962221,0.013668984004321458,-0.028775409292379425,0.014400336747914692
179,-2.8646311932636666,-0.3286508180319792,0.01309347581847387,0.05092734625629622,0.04136330178780925
180,-2.871204209624306,-0.2051809753368024,0.014112022743599795,-0.1304121704437945,0.03804109290572122
181,-2.875307829131042,-0.3811825292904004,0.011503779334723905,0.13771266997672094,0.05518234689047493
182,-2.88293147971685,-0.23775550866988296,0.014258032734258325,-0.07403158906285767,0.011041716292295918
183,-2.8876865898902477,-0.2826357009082517,0.01277740095300117,-0.0025264238134847794,0.02211360711816663
184,-2.8933393039084128,-0.2065184743032577,0.012726872476731476,-0.11293648989731764,0.03439770479077466
185,-2.897469673394478,-0.3652554332303639,0.010468142678785123,0.12889126489356448,0.11731295369935413
186,-2.9047747820590852,-0.04695336522227844,0.013045967976656412,-0.34545809948289574,0.026582168616845966
187,-2.9057138493635306,-0.4610467492332402,0.006136805986998497,0.27946452489441587,0.08414832701479596
188,-2.9149347843481954,-0.27802569717684333,0.011726096484886815,0.006742325912021951,0.015615066125954832
189,-2.9204952982917325,-0.3330480128098048,0.011860943003127254,0.09271751855669086,0.06300508946567664
190,-2.9271562585479285,-0.1462915867932999,0.013715293374261072,-0.18391038027171086,0.031414961979111714
191,-2.9300820902837943,-0.3446656940284448,0.010037085768826854,0.11765496384750196,0.012462115908528295
