,X,v,theta,theta_dot,energy
0,0.0,0.0,-0.6981317007977318,0.0,0.0
1,0.0,-0.4897681867333508,-0.6981317007977318,0.37379673954746956,0.2838909421080751
2,-0.009795363734667016,-1.046943422135116,-0.6906557660067824,0.8250486716841727,0.6107039151630244
3,-0.030734232177369335,-1.609000015972298,-0.6741547925730988,1.287631890314192,0.6574375544574883
4,-0.0629142324968153,-2.002220225545619,-0.6484021547668151,1.5649021347375005,1.1219500562932172
5,-0.10295863700772767,-2.545081800327825,-0.6171041120720651,2.036383076877049,1.2661982584430485
6,-0.15386027301428418,-3.0292192579076564,-0.5763764505345241,2.4585153977626364,1.556434603473628
7,-0.2144446581724373,-3.532475027330281,-0.5272061425792715,2.9312153943593797,1.445045575309327
8,-0.2850941587190429,-3.9357609585713402,-0.46858183469208387,3.3060871614039558,0.662672042533486
9,-0.36380937789046974,-4.10246496896807,-0.40246009146400474,3.396412850704265,0.563513661958946
10,-0.44585867726983114,-3.9643705803702973,-0.3345318344499194,3.090667019773895,0.8101345980588783
11,-0.5251460888772371,-3.758262059406711,-0.2727184940544415,2.7021148116954787,0.7328985199339821
12,-0.6003113300653713,-3.561026441339314,-0.2186761978205319,2.338006434764779,0.3525889640259502
13,-0.6715318588921576,-3.4599828213018644,-0.17191606912523633,2.1262708257161185,0.6073683323612203
14,-0.7407315153181949,-3.282577056880096,-0.12939065261091395,1.8137902189197979,0.10029242380604173
15,-0.8063830564557969,-3.3116914991118263,-0.093114848232518,1.8191620234086747,0.7027356860946027
16,-0.8726168864380334,-3.0984900845604684,-0.05673160776434451,1.4734090794721604,0.02012268214036251
17,-0.9345866881292427,-3.1042727435668453,-0.0272634261749013,1.465398965968434,0.18991708337558835
18,-0.9966721430005796,-3.0429466620211505,0.0020445531444673835,1.3654295746729153,0.5634011020051151
19,-1.0575310762410026,-2.8585779442962704,0.02935314463792569,1.08947817431433,0.010919288459514608
20,-1.114702635126928,-2.855172588969327,0.05114270812421229,1.0930009270485872,0.41867139478189747
21,-1.1718060869063145,-2.7102848841406537,0.07300272666518404,0.8909829339572319,0.08671948580478844
22,-1.2260117845891276,-2.7429468880337855,0.09082238534432868,0.9612891889004729,0.7233353609458406
23,-1.2808707223498033,-2.4828981836704624,0.11004816912233814,0.5994889129415364,0.349542153053809
24,-1.3305286860232126,-2.623161382592166,0.12203794738116887,0.8408998895164361,0.9003057318331746
25,-1.382991913675056,-2.285425073755673,0.1388559451714976,0.3738534058890993,0.24488970786110903
26,-1.4287004151501694,-2.392536392779094,0.14633301328927958,0.5736665513315494,0.5504707910511498
27,-1.4765511430057514,-2.167996521181804,0.15780634431591056,0.28332495657565276,0.11812099206354412
28,-1.5199110734293875,-2.223578150135155,0.1634728434474236,0.4118641904814042,0.41319120942952337
29,-1.5643826364320905,-2.0433953507528497,0.1717101272570517,0.19304051822318083,0.038483458044595874
30,-1.6052505434471476,-2.0642109176197274,0.17557093762151532,0.2740397654240533,0.01162441329819815
31,-1.646534761799542,-2.072173741289527,0.18105173292999638,0.3371534579046841,0.5060429223584917
32,-1.6879782366253326,-1.8352587507846276,0.18779480208809007,0.04052846532528748,0.2617154702017487
33,-1.7246834116410252,-1.97679117696206,0.18860537139459582,0.30398225710617616,0.37230162607733314
34,-1.7642192351802664,-1.7948710743219507,0.19468501653671935,0.09106299658165001,0.20973571614925834
35,-1.8001166566667053,-1.6836349625311022,0.19650627646835236,-0.01576256291452753,0.04367166841985957
36,-1.8337893559173273,-1.6611481303258981,0.19619102521006182,0.008558086657818147,0.1392410177890533
37,-1.8670123185238452,-1.5823128365902484,0.1963621869432182,-0.05011546652034929,0.06153523488768544
38,-1.8986585752556502,-1.5472668564026202,0.1953598776128112,-0.04431400789935724,0.20403294993666946
39,-1.9296039123837025,-1.4218569478508882,0.19447359745482407,-0.17177936969002464,0.08140830479267004
40,-1.9580410513407203,-1.3691556343145925,0.19103801006102358,-0.19252564927054616,0.03150527831606701
41,-1.985424164027012,-1.3940660880903857,0.18718749707561266,-0.10001556919184777,0.1829326327275653
42,-2.0133054857888197,-1.2693896368914972,0.1851871856917757,-0.22905108223885146,0.0741362537467937
43,-2.0386932785266496,-1.3283522331097777,0.18060616404699867,-0.08798504575429195,0.17161385871974044
44,-2.0652603231888453,-1.20550537579153,0.17884646313191283,-0.21644815594179392,0.07249088850378399
45,-2.089370430704676,-1.149937549819923,0.17451750001307695,-0.24616939855279632,0.08747835213255548
46,-2.1123691817010743,-1.0790239534256518,0.16959411204202102,-0.29987597462379634,0.08650872972844531
47,-2.1339496607695874,-1.158484650006578,0.1635965925495451,-0.13277292572695965,0.24407626514171843
48,-2.157119353769719,-0.9566823048297444,0.1609411340350059,-0.3835515749781597,0.14441029146716192
49,-2.176252999866314,-1.1033158275178392,0.1532701025354427,-0.119331037813252,0.1829251572215287
50,-2.1983193164166708,-0.944778140690637,0.15088348177917768,-0.3094646003326461,0.06505297931240236
51,-2.2172148792304833,-0.8808000655672032,0.14469418977252477,-0.3601497778472601,0.10334115953278004
52,-2.2348308805418275,-0.9950509174497895,0.13749119421557957,-0.14817256644685572,0.16982840547785746
53,-2.254731898890823,-0.831818288477908,0.13452774288664246,-0.3504156871053933,0.08657474797677812
54,-2.2713682646603814,-0.9332235303394367,0.1275194291445346,-0.16025018529353738,0.14402609228578078
55,-2.2900327352671703,-0.7857931901689663,0.12431442543866385,-0.34221089715336156,0.066500178375505
56,-2.3057485990705495,-0.8684234171156568,0.11747020749559661,-0.18276767761807186,0.03926555481890245
57,-2.3231170674128627,-0.8264343035350459,0.11381485394323518,-0.21086041703113248,0.007643444623540813
58,-2.3396457534835635,-0.8191341628991187,0.10959764560261252,-0.18835040966585687,0.1098637393574025
59,-2.356028436741546,-0.6912966957515204,0.10583063740929538,-0.34679886850503794,0.18837810473286873
60,-2.3698543706565762,-0.9525340609401491,0.09889466003919462,0.07392096795255104,0.20175469743540717
61,-2.3889050518753794,-0.7467192171010442,0.10037307939824563,-0.20426519201466742,0.04923874539005147
62,-2.4038394362174005,-0.6846450918382037,0.09628777555795229,-0.26744757753384374,0.06741629631890261
63,-2.4175323380541647,-0.7803445164595628,0.09093882400727542,-0.09629848956096462,0.09482191270011474
64,-2.433139228383356,-0.6638204841267157,0.08901285421605612,-0.24366312813800836,0.028200391040361192
65,-2.4464156380658904,-0.7058290420559459,0.08413959165329596,-0.15476452651723532,0.08355323348246509
66,-2.460532218907009,-0.5927335548201739,0.08104430112295125,-0.29909975664422056,0.06719971581841218
67,-2.4723868900034125,-0.7019659745673519,0.07506230599006683,-0.11198797637110455,0.028314971822489713
68,-2.4864262094947596,-0.6639828473321789,0.07282254646264474,-0.1467546345429144,0.0139799158855229
69,-2.499705866441403,-0.6853510441645395,0.06988745377178646,-0.09339637986182267,0.027509685565843923
70,-2.513412887324694,-0.6474429731800804,0.06801952617455,-0.1295894888723171,0.062423853013417054
71,-2.5263617467882957,-0.5552273595048254,0.06542773639710366,-0.2476107214832942,0.12042435617147981
72,-2.537466293978392,-0.7634998748459831,0.06047552196743777,0.08335164546695653,0.1906979556474777
73,-2.552736291475312,-0.5195406929587655,0.062142554876776904,-0.26414919161119443,0.0898012453220939
74,-2.563127105334487,-0.6852076990776734,0.05685957104455301,0.0021298096985682413,0.07024591935726118
75,-2.5768312593160405,-0.5860134475314684,0.05690216723852438,-0.12971340255802313,0.03895363793401639
76,-2.58855152826667,-0.6510174167509093,0.054307899187363916,-0.015645050472991945,0.12670967765082133
77,-2.601571876601688,-0.4621561832407471,0.053994998177904076,-0.2825605652448747,0.08824242133537182
78,-2.610815000266503,-0.6441350033398252,0.04834378687300658,0.00587666461133779,0.13446543579288403
79,-2.6236977003332993,-0.4411155974432692,0.048461320165233336,-0.2840891150297145,0.063686782008068
80,-2.6325200122821646,-0.5786352922477733,0.04277953786463905,-0.06380969710238013,0.010740622239285446
81,-2.64409271812712,-0.5612312075006697,0.041503343922591446,-0.0773185913439491,0.03410871330647268
82,-2.6553173422771335,-0.620741810216169,0.039956972095712466,0.02406892264762478,0.03891851330470941
83,-2.6677321784814567,-0.5600458051024256,0.04043835054866496,-0.05515819194407172,0.024731213785711324
84,-2.6789330945835053,-0.5177396992357961,0.039335186709783525,-0.10667983660383616,0.09393331549164773
85,-2.689287888568221,-0.6936461792112165,0.037201589977706805,0.16853734319307645,0.1636502033385143
86,-2.7031608121524453,-0.46146001327664044,0.040572336841568336,-0.16856618668315138,0.12296583564471503
87,-2.7123900124179783,-0.7177383133482236,0.03720101310790531,0.2274599040033381,0.23539622845170396
88,-2.726744778684943,-0.3936592322890101,0.04175021118797207,-0.24738780750022138,0.08859459984991519
89,-2.734617963330723,-0.6076993110706028,0.03680245503796764,0.08566353103393026,0.12300549680736242
90,-2.746771949552135,-0.40949853963028515,0.03851572565864625,-0.2006188339374721,0.09452099212120073
91,-2.7549619203447406,-0.6303141211341814,0.034503348979896806,0.14167971404898777,0.16297171335021693
92,-2.7675682027674244,-0.37597776164766905,0.03733694326087656,-0.22945578872219113,0.1079206911118263
93,-2.7750877580003777,-0.6489678699967832,0.032747827486432735,0.190718497180907,0.12352600806943813
94,-2.788067115400313,-0.461238320392922,0.036562197430050875,-0.08109870647577677,0.002066907915208548
95,-2.797291881808172,-0.46609877340688616,0.03494022330053534,-0.06306600820751929,0.006182819859092583
96,-2.8066138572763095,-0.45373798385341363,0.033678903136384955,-0.07132554032328572,0.04599157574615356
97,-2.815688616953378,-0.5524003717069255,0.03225239232991924,0.08648384294312708,0.17400718884640576
98,-2.8267366243875163,-0.24336544507749364,0.033982069188781786,-0.36734691089942606,0.09488967985582109
99,-2.8316039332890663,-0.5998009382419245,0.026635130970793265,0.17698646044664157,0.1391685033585686
100,-2.843599952053905,-0.3707523200931854,0.030174860179726096,-0.15863480082992493,0.03708729736904514
101,-2.8510149984557684,-0.46690928875645743,0.027002164163127597,-0.005594944957748649,0.003775539821004833
102,-2.8603531842308976,-0.4751806288557796,0.026890265263972625,0.01474521398604036,0.026610649475995608
103,-2.8698567968080133,-0.42085657234484053,0.027185169543693433,-0.058806626550263384,0.06459809470624697
104,-2.87827392825491,-0.5700415592980406,0.026009037012688165,0.17287962488650976,0.15609422565896286
105,-2.889674759440871,-0.29954348957970756,0.02946662951041836,-0.22508445476550537,0.06890371447463194
106,-2.895665629232465,-0.5169598453249356,0.024964940415108255,0.10956044047220165,0.0739641381237975
107,-2.9060048261389637,-0.37638099492194854,0.027156149224552287,-0.09390319680584444,0.008356677051595103
108,-2.9135324460374026,-0.39818722037393384,0.0252780852884354,-0.05322299213192306,0.03954528231931121
109,-2.921496190444881,-0.49485107336393785,0.024213625445796937,0.09915743064322596,0.06253844353154801
110,-2.9313932119121597,-0.3707744235940454,0.026196774058661457,-0.07978487682844457,0.027241420063368407
111,-2.938808700384041,-0.4421318016465034,0.024601076522092567,0.03491543515506705,0.007406039550428513
112,-2.9476513364169707,-0.4260841053469558,0.02529938522519391,0.01808316150772284,0.04005439156187381
113,-2.9561730185239097,-0.5183326662400383,0.025661048455348365,0.1638489476453567,0.149129394575814
114,-2.9665396718487105,-0.23393065743273345,0.0289380274082555,-0.25507009619586873,0.07050474786102769
115,-2.971218284997365,-0.5144865765419055,0.023836625484338125,0.1740941823264472,0.15477840428892833
116,-2.981508016528203,-0.2167536525639836,0.02731850913086707,-0.2653710299008701,0.0730807410707411
117,-2.985843089579483,-0.5287279869613237,0.022011088532849665,0.21044650521839586,0.136750658711682
118,-2.9964176493187096,-0.27207121924078587,0.026220018637217582,-0.16797465228105063,0.07388878015931098
119,-3.001859073703525,-0.5301579023735514,0.02286052559159657,0.2267301083884895,0.11678235992324758
120,-3.0124622317509964,-0.3113279841742541,0.02739512775936636,-0.09470859252695152,0.08647439411547926
121,-3.0186887914344815,-0.5789961800644023,0.025500955908827328,0.3146962085614023,0.20546800045518557
122,-3.0302687150357697,-0.224395807384615,0.03179488008005538,-0.20953494421055646,0.08568128424426519
123,-3.034756631183462,-0.582180680894357,0.02760418119584425,0.3362172413652063,0.2132576932532253
124,-3.046400244801349,-0.2155902438117583,0.03432852602314838,-0.20534432501266803,0.051906682162861345
125,-3.050712049677584,-0.441211788141678,0.030221639522895017,0.14297920317557444,0.1319738962572939
126,-3.0595362854404176,-0.1454821788331036,0.03308122358640651,-0.2915288387405758,0.029871749633274127
127,-3.0624459290170796,-0.32954390846974313,0.02725064681159499,-0.005863197985738755,0.022076073308861025
128,-3.0690368071864746,-0.2646349656188649,0.027133382851880213,-0.09517976495062463,0.014123048792999223
129,-3.074329506498852,-0.3162500373105235,0.02522978755286772,-0.009809419955664908,0.014305550693061473
130,-3.0806545072450624,-0.3606791760726729,0.025033599153754423,0.06422984918124712,0.011500498673541313
131,-3.087868090766516,-0.3296776143560725,0.026318196137379363,0.02510118637391582,0.02960989905315274
132,-3.0944616430536374,-0.2421309945678512,0.02682021986485768,-0.09843661026337977,0.0367189846277395
133,-3.0993042629449943,-0.3877745000648223,0.024851487659590086,0.12783427836414998,0.07399874089367113
134,-3.1070597529462907,-0.1991327327065622,0.027408173226873084,-0.14773541347356536,0.06834335195089848
135,-3.1110424076004217,-0.5234218260376653,0.024453464957401777,0.34657252564318297,0.20139936333476582
136,-3.121510844121175,-0.13675279746389452,0.03138491547026544,-0.22606901071725127,0.04014263727990385
137,-3.124245900070453,-0.40355648904619784,0.02686353525592041,0.18316508943257231,0.11952400459339226
138,-3.132317029851377,-0.1089190762224973,0.030526837044571858,-0.250734641198015,0.041036080039267585
139,-3.134495411375827,-0.44209456434257566,0.025512144220611557,0.2577692436648003,0.1467173332388487
140,-3.1433373026626783,-0.10988915128576349,0.030667529093907565,-0.23287696115842638,0.025618463680693884
141,-3.1455350856883935,-0.3177800221857953,0.026009989870739037,0.08782755640207318,0.015330648432810933
142,-3.151890686132109,-0.2704901377548692,0.027766540998780502,0.024562797636377795,0.03757004715280492
143,-3.1573004888872065,-0.13482587833301204,0.028257796951508058,-0.17069283650390588,0.022504433806421125
144,-3.159997006453867,-0.28920658875860994,0.02484394022142994,0.06909246689581819,0.006590327236165884
145,-3.1657811382290393,-0.26708781771481444,0.0262257895593463,0.043227916009002026,0.03483677282393369
146,-3.1711228945833354,-0.1392767514645758,0.02709034787952634,-0.14071325826557435,0.011211297847366465
147,-3.1739084296126268,-0.21474665340417406,0.024276082714214855,-0.019586354466850697,0.016322581762334833
148,-3.1782033626807102,-0.14124921983416927,0.02388435562487784,-0.12266355351876798,0.011931751332560216
149,-3.1810283470773935,-0.22087186180889484,0.02143108455450248,0.0037576777090612967,0.004260196962656145
150,-3.1854457843135715,-0.20234753261316904,0.02150623810868371,-0.017722178722555135,0.008172173801718528
151,-3.189492734965835,-0.16341160296081955,0.021151794534232604,-0.0697902206764707,0.021871076441755184
152,-3.1927609670250514,-0.29180049988577283,0.01975599012070319,0.12896820947842166,0.03925947068567175
153,-3.198596977022767,-0.1581361638923905,0.022335354310271626,-0.06568128570082268,0.020954723889552915
154,-3.201759700300615,-0.28533539372566785,0.021021728596255174,0.13163601750703977,0.05974621778859631
155,-3.207466408175128,-0.07698637421834023,0.02365444894639597,-0.17463852716198056,0.011384066978855798
156,-3.2090061356594948,-0.20810214841894262,0.020161678403156358,0.028933873478666466,0.0024690777852294198
157,-3.2131681786278734,-0.1967425791714888,0.020740355872729686,0.01782511455650336,0.008133022687220133
158,-3.217103030211303,-0.2375355321337709,0.021096858163859752,0.08509861124863054,0.01975340927017387
159,-3.2218537408539785,-0.15536629118906214,0.02279883038883236,-0.03192580621676745,0.02635227352712459
160,-3.2249610666777597,-0.31963287786540123,0.02216031426449701,0.22111231435885087,0.08859811567706506
161,-3.231353724235068,-0.04075641739606872,0.02658256055167403,-0.19058506849243467,0.012591663559704881
162,-3.2321688525829892,-0.28971455913101096,0.022770859181825337,0.19053456285269843,0.11582935847863719
163,-3.2379631437656093,0.11201401778018016,0.026581550438879307,-0.40520802936688105,0.0327057109723089
164,-3.2357228634100057,-0.22924197503415117,0.018477389851541688,0.11430918285467206,0.0358401481590592
165,-3.240307702910689,-0.07344518098694328,0.02076357350863513,-0.11391407244551968,0.008868987893761966
166,-3.241776606530428,-0.1837930725951997,0.018485292059724736,0.057676137853063525,0.008256406189274227
167,-3.245452467982332,-0.2285176424756053,0.019638814816786008,0.13018589736949313,0.0309213598481856
168,-3.250022820831844,-0.09328163604526235,0.02224253276417587,-0.06685555443722696,0.004746300732519244
169,-3.2518884535527492,-0.04552754674614034,0.020905421675431333,-0.13193020462415964,0.005969244070385567
170,-3.252799004487672,-0.15885296140843552,0.01826681758294814,0.04416651949896028,0.012508202412624528
171,-3.2559760637158406,-0.08131338704790043,0.019150147972927346,-0.06675329201475269,0.005139183836743638
172,-3.257602331456799,-0.1410291868090436,0.01781508213263229,0.028433782917860806,0.002665085748328936
173,-3.2604229151929798,-0.12267805150121569,0.018383757790989507,0.006148805114366312,0.002603189609985422
174,-3.262876476223004,-0.10219275127040812,0.018506733893276832,-0.019169432572212125,0.000642291019687359
175,-3.2649203312484123,-0.09637827631848765,0.018123345241832588,-0.022448982271553213,0.0023470834645826348
176,-3.2668478967747823,-0.1201475374813592,0.017674365596401523,0.018527026094909912,0.011085184045942484
177,-3.2692508475244093,-0.21104692680853449,0.01804490611829972,0.16005080701052235,0.05752488799221542
178,-3.27347178606058,0.06410136443306347,0.02124592225851017,-0.24729952212520875,0.021012429515322707
179,-3.2721897587719186,-0.3239866182452093,0.016299931816005992,0.34094690402332495,0.10216733987738534
180,-3.278669491136823,-0.0011193643820857635,0.02311886989647249,-0.13849767403075414,0.0003327138660545048
181,-3.278691878424465,-0.045235111754441726,0.020348916415857406,-0.06554539420283668,0.005058268252774455
182,-3.279596580659554,-0.147877951954865,0.01903800853180067,0.09436915911902803,0.02665351073939694
183,-3.282554139698651,0.03294029607399823,0.020925391714181233,-0.17121222539970704,0.006605225437582411
184,-3.2818953337771712,-0.2234830940389398,0.017501147206187093,0.21949026857616244,0.04927530643515951
185,-3.28636499565795,0.0014215672777693755,0.021890952577710343,-0.11266998553353252,0.0004977562071499889
186,-3.286336564312395,-0.13018137878251554,0.019637552867039693,0.0911225620226461,0.022304887261306406
187,-3.288940191888045,0.04218239329669085,0.021460004107492613,-0.16160017628884696,0.0047750468465036396
188,-3.2880965440221113,-0.09184005174024698,0.018228000581715673,0.04569595879814972,0.002410669081546315
189,-3.2899333450569164,-0.11830154387550744,0.019141919757678667,0.09074033852259294,0.015065612046383752
190,-3.2922993759344266,0.010151129512461346,0.020956726528130527,-0.09627599184488564,0.0006131885780298271
191,-3.2920963533441774,-0.09372112541282002,0.019031206691232816,0.06565900411046668,0.013599553302579968
