,X,v,theta,theta_dot,energy
0,0.0,0.0,-0.8726646259971648,0.0,0.0
1,0.0,-0.5544949637796627,-0.8726646259971648,0.30941667224975095,0.2973075405533663
2,-0.011089899275593253,-1.057699957996904,-0.8664762925521697,0.5693805090956157,0.6244978271235245
3,-0.03224389843553133,-1.6126492986584924,-0.8550886823702574,0.8843449239845584,0.9516040623344934
4,-0.06449688440870119,-2.168335313013286,-0.8374017838905662,1.2094053589866496,1.1202821732614936
5,-0.1078635906689669,-2.6554653456603576,-0.8132136767108332,1.4801147207160124,1.554337521675299
6,-0.16097289758217406,-3.209787424421524,-0.783611382296513,1.8378919086982413,1.8088201807648847
7,-0.22516864607060455,-3.7457108575118063,-0.7468535441225481,2.199821696900125,2.007065249124141
8,-0.30008286322084066,-4.257893531780296,-0.7028571101845457,2.563880256874394,2.5002489946151094
9,-0.3852407338564466,-4.823052891042051,-0.6515795050470577,3.0206621578647206,2.552109402496263
10,-0.4817017916772876,-5.3361996837858925,-0.5911662618897633,3.4543931319161922,3.089814932310892
11,-0.5884257853530055,-5.902557598265726,-0.5220783992514394,3.995901221117345,0.5314049459356023
12,-0.70647693731832,-5.992780060354469,-0.4421603748290925,3.966593655936686,0.38770155980265153
13,-0.8263325385254093,-5.929733151517976,-0.36282850171035874,3.7553176214381994,1.6745295705771674
14,-0.9449272015557688,-5.64921158605633,-0.2877221492815948,3.2575831222113174,0.10384546904592758
15,-1.0579114332768955,-5.629959968150876,-0.22257048683736844,3.1464647549875755,1.2890656896559214
16,-1.170510632639913,-5.400727952293601,-0.15964119173761693,2.7462015330513623,1.1474776765684787
17,-1.2785251916857852,-5.187895253406049,-0.10471716107658968,2.38427652537127,0.4673043967917807
18,-1.3822830967539061,-5.097309060957791,-0.057031630569164285,2.2184109510863252,1.6073291000995646
19,-1.484229277973062,-4.782999067957264,-0.012663411547437782,1.730954287623669,0.3763419831668896
20,-1.5798892593322071,-4.860901541847381,0.0219556742050356,1.8440756856471507,1.1510262939672538
21,-1.6771072901691548,-4.626084464643368,0.058837187917978616,1.4983894115210514,0.6776409087871087
22,-1.7696289794620221,-4.481794693309496,0.08880497614839965,1.2996174292815494,0.05833043610157733
23,-1.859264873328212,-4.495773652636638,0.11479732473403063,1.3465776002682146,1.00904160648896
24,-1.9491803463809447,-4.275449370119282,0.14172887673939494,1.051942764197769,0.4729006383235803
25,-2.0346893337833305,-4.168341901990255,0.16276773202335032,0.934421400321786,0.06771118623765839
26,-2.1180561718231354,-4.186471005678612,0.18145616002978604,1.0088983173446189,1.3385289607961266
27,-2.2017855919367078,-3.8742615017311395,0.2016341263766784,0.601328699363166,0.515005311488396
28,-2.2792708219713305,-3.7467896792903272,0.21366070036394172,0.4728742776360483,0.14605914515053983
29,-2.354206615557137,-3.7115851561343236,0.2231181859166627,0.48360765229154634,0.4510233276103955
30,-2.4284383186798233,-3.595802349881865,0.23279033896249363,0.379292286594337,0.3983487625783084
31,-2.5003543656774605,-3.4908123160661213,0.24037618469438038,0.29387905006821363,0.2546064430691659
32,-2.570170611998783,-3.4229672077191315,0.24625376569574464,0.26502935746896333,0.4658127030560363
33,-2.6386299561531654,-3.2936834888499176,0.2515543528451239,0.14862314088166528,0.08823609538496867
34,-2.7045036259301636,-3.323189829861566,0.2545268156627572,0.26466910876216054,0.28647594878446714
35,-2.770967422527395,-3.2426428962586726,0.2598201978380004,0.22176675826397202,0.2944552419747604
36,-2.8358202804525683,-3.157742172469621,0.26425553300327986,0.17422065660025526,0.23981558534311512
37,-2.8989751239019608,-3.087428592100962,0.26773994613528496,0.149201526754278,0.20874515023955317
38,-2.96072369574398,-3.0252976739760387,0.2707239766703705,0.13710407834291308,0.372693784420201
39,-3.0212296492235007,-2.9091694146734755,0.27346605823722875,0.0478803649478738,0.09044258143713742
40,-3.07941303751697,-2.882687026555144,0.27442366553618625,0.0890335594303619,0.11544962196089534
41,-3.137066778048073,-2.8474897050345835,0.2762043367247935,0.11788483216468515,0.3079307579686626
42,-3.1940165721487648,-2.7461056220154667,0.2785620333680872,0.05174829033222897,0.1172699639785564
43,-3.248938684589074,-2.708408102463797,0.2795969991747318,0.07822394523917596,0.7332779955022519
44,-3.30310684663835,-2.449183585046077,0.2811614780795153,-0.21437834200224098,0.33952283236254027
45,-3.3520905183392715,-2.5869486287899557,0.27687391123947047,0.06573164263389414,0.7070700374005416
46,-3.403829490915071,-2.3251973325663093,0.2781885440921483,-0.23157708058592852,0.7484696575466666
47,-3.450333437566397,-2.6399153017695256,0.27355700248042975,0.3030872235098211,1.0868258924411343
48,-3.5031317436017875,-2.2420711019273383,0.27961874695062616,-0.1920625242717155,0.07063802788470877
49,-3.547973165640334,-2.2762973759333858,0.27577749646519184,-0.061576266901318705,0.45284657054905597
50,-3.5934991131590017,-2.0872213021840706,0.27454597112716544,-0.2544189020619071,0.08652518672991195
51,-3.635243539202683,-2.1309404881546863,0.2694575930859273,-0.11158983164761971,0.09865868370231146
52,-3.6778623489657765,-2.0897652869357772,0.2672257964529749,-0.09285860883136442,0.17712432842161846
53,-3.719657654704492,-2.011286094158968,0.2653686242763476,-0.12876654832612922,0.31565357928025073
54,-3.7598833765876716,-1.8629734944487701,0.26279329330982504,-0.26634220986097995,0.10057379460169012
55,-3.797142846476647,-1.9186186633619917,0.2574664491126054,-0.10936504932576849,0.34527895238887607
56,-3.8355152197438867,-1.7478233960152147,0.25527914812609004,-0.28225176044426664,0.4056047834805819
57,-3.870471687664191,-1.975052571686998,0.2496341129172047,0.12178578903880838,0.8793535548691999
58,-3.909972739097931,-1.5448496886909016,0.25206982869798084,-0.4308834266082227,0.3643080810788212
59,-3.9408697328717492,-1.7744990127026334,0.2434521601658164,-0.023969197267742826,0.5391233806620996
60,-3.976359713125802,-1.4828634428000793,0.24297277622046154,-0.3776527542801665,0.41294000109049206
61,-4.006016981981803,-1.7536930923783562,0.2354197211348582,0.08739232811604686,0.8479801106831105
62,-4.0410908438293704,-1.2860188786065554,0.23716756769717914,-0.5261930356091626,0.6069197169525561
63,-4.066811221401502,-1.7396388516123253,0.2266437069849959,0.2042653147415454,0.9373593848909194
64,-4.101603998433749,-1.2162746089388259,0.2307290132798268,-0.49464007689991973,0.4108489245263987
65,-4.125929490612525,-1.541888546594961,0.2208362117418284,0.0480717050225854,0.7768530615110923
66,-4.156767261544425,-1.0544403957923323,0.22179764584228012,-0.6009443198142218,0.617975193814468
67,-4.1778560694602715,-1.6131258392928474,0.2097787594459957,0.28123032451635277,0.906439928006474
68,-4.210118586246129,-1.0652795769769807,0.21540336593632275,-0.4612998339261012,0.45088377031053933
69,-4.2314241777856685,-1.4720029709874616,0.20617736925780072,0.19752634586158535,0.8177913548140198
70,-4.260864237205418,-0.9312598225879628,0.21012789617503244,-0.5362218777124644,0.3600317904705691
71,-4.279489433657177,-1.300704563618976,0.19940345862078315,0.06707989555609117,0.5631817311861963
72,-4.305503524929557,-0.8812981205563797,0.20074505653190497,-0.49132702370841064,0.3383917544461107
73,-4.323129487340684,-1.248504096007191,0.19091851605773674,0.10704419866719816,0.6621775182424556
74,-4.348099569260828,-0.733104136100637,0.1930594000310807,-0.5962191108785608,0.34650133348777473
75,-4.362761651982841,-1.1794954314854649,0.1811350178135095,0.11733567339698292,0.4991460418350747
76,-4.3863515606125505,-0.7683020902753058,0.18348173128144915,-0.43640060127305125,0.2644723968270916
77,-4.401717602418056,-1.0975521975577835,0.17475371925598812,0.10282603216063924,0.5274985132054397
78,-4.4236686463692125,-0.6301741190750119,0.17681023989920092,-0.536446914413071,0.2974010522312135
79,-4.436272128750713,-1.0751151679504818,0.1660813016109395,0.17227133449476772,0.5098730962217085
80,-4.457774432109723,-0.6123448391088772,0.16952672830083487,-0.4637289568038979,0.328832347088516
81,-4.4700213288919,-1.120338398423073,0.1602521491647569,0.33694051062254415,0.6631365032208643
82,-4.492428096860362,-0.5382983449718838,0.1669909593772078,-0.4780203843823857,0.18664068247438423
83,-4.5031940637598,-0.8652592331765344,0.15743055168956008,0.054466086682097514,0.3486114429063563
84,-4.520499248423331,-0.47399786245939224,0.15851987342320203,-0.4790744707953867,0.17480336732838447
85,-4.529979205672519,-0.8197331060644455,0.1489383840072943,0.07943606115046409,0.42267260076913526
86,-4.5463738677938075,-0.31739943639214296,0.1505271052303036,-0.6220963889675407,0.18800880380966686
87,-4.55272185652165,-0.8496660960264709,0.13808517745095278,0.2113634635367394,0.3085755740783742
88,-4.56971517844218,-0.49378190820066326,0.14231244672168758,-0.2769133782357473,0.018148557039897054
89,-4.579590816606193,-0.5307053478106601,0.13677417915697263,-0.1803893530607354,0.0691947890072634
90,-4.590204923562406,-0.40752120443349965,0.13316639209575792,-0.32335358856852453,0.0799903205938286
91,-4.598355347651076,-0.5940400073685794,0.12669932032438744,-0.007017104752731429,0.22701904171855697
92,-4.610236147798448,-0.2236287148952445,0.12655897822933282,-0.5210304044361145,0.09607423092282101
93,-4.614708722096353,-0.6042135459615845,0.11613837014061053,0.08239011134063301,0.24685949150889527
94,-4.626792993015584,-0.20518824715975287,0.11778617236742318,-0.4780478211955338,0.1024651224542234
95,-4.630896757958779,-0.6471969170508811,0.1082252159435125,0.2149204341763039,0.24689437025263467
96,-4.6438406962997965,-0.2712061867984253,0.11252362462703858,-0.31400984753685357,0.04105020620964125
97,-4.649264820035765,-0.4129934721972778,0.1062434276763015,-0.06966175790308907,0.08250867757690042
98,-4.657524689479711,-0.22122851081129877,0.10485019251823972,-0.32451045424061487,0.04899256076685687
99,-4.661949259695937,-0.4251626777607353,0.09835998343342743,0.010480370209056566,0.09955948012490985
100,-4.670452513251151,-0.19801292480064805,0.09856959083760856,-0.29972615648050505,0.04110794740970674
101,-4.674412771747164,-0.3888299182641689,0.09257506770799846,0.014042536122459925,0.130980140655355
102,-4.6821893701124475,-0.061175687950556,0.09285591843044766,-0.44815606939232655,0.030962804150345163
103,-4.683412883871458,-0.43304398634839364,0.08389279704260112,0.13450378374813432,0.18892549403216813
104,-4.692073763598426,-0.0027558884683668294,0.0865828727175638,-0.48402285762183705,0.010482973412056699
105,-4.692128881367793,-0.4180836056506726,0.07690241556512706,0.1620585909338158,0.17709414768282625
106,-4.700490553480806,0.0012813650475111404,0.08014358738380338,-0.4425426625368103,0.00860949449650232
107,-4.700464926179857,-0.44697882341572265,0.07129273413306718,0.2512263956010079,0.18954115631636415
108,-4.709404502648171,-0.023627615415430347,0.07631726204508733,-0.36124497616806295,0.012631488146050964
109,-4.70987705495648,-0.3326277151039473,0.06909236252172607,0.12332154179061611,0.10548811517622032
110,-4.716529609258559,-0.01903300242504552,0.0715587933575384,-0.3256512088968462,0.009662015136991923
111,-4.71691026930706,-0.2988234739297447,0.06504576917960148,0.11398075756801967,0.12226284641319997
112,-4.722886738785655,0.10631718329511636,0.06732538433096187,-0.47333510952825614,0.04206598671806758
113,-4.720760395119752,-0.37818047896339807,0.057858682140396744,0.2715436545435403,0.20321831418577516
114,-4.7283240046990205,0.16276916012852266,0.06328955523126754,-0.5215220463245145,0.07874060036947922
115,-4.72506862149645,-0.3902080735996965,0.05285911430477726,0.3248778275657771,0.13983647694483722
116,-4.732872782968444,-0.027680885337760253,0.0593566708560928,-0.2026200889388453,0.003425509958632118
117,-4.733426400675199,-0.11913182815404462,0.05530426907731589,-0.04824463888183447,0.01563377726330391
118,-4.735809037238281,0.005768273730313078,0.05433937629967921,-0.21905718573072533,0.0009187787729609882
119,-4.735693671763674,-0.20964293583280239,0.049958232585064696,0.1195506171869127,0.04338027090446485
120,-4.73988653048033,-0.0031527114465570993,0.05234924492880295,-0.17511666569905135,0.0023091148617378396
121,-4.739949584709262,-0.20677094428539683,0.04884691161482192,0.14527592536073028,0.06599153358167884
122,-4.74408500359497,0.11410179147500793,0.05175243012203653,-0.3211038039246684,0.03141306647649591
123,-4.741802967765469,-0.19451007023706895,0.04533035404354316,0.15640263089656875,0.055320378873592
124,-4.7456931691702104,0.09278477036060662,0.04845840666147453,-0.26077438652779417,0.022429762392143747
125,-4.743837473762999,-0.17820346252596164,0.043242918930918646,0.15947199822972496,0.059146249794404894
126,-4.747401543013518,0.15865540497948588,0.04643235889551314,-0.3326344884102125,0.039826605945269766
127,-4.744228434913928,-0.11263608533030584,0.03977966912730889,0.08751036368265314,0.02410063228792449
128,-4.746481156620534,0.10315494511865622,0.04152987640096195,-0.2242279728889774,0.019887290906358192
129,-4.7444180577181605,-0.10610360775302174,0.0370453169431824,0.1015954835438197,0.024210394771685014
130,-4.746540129873221,0.12607629075889984,0.039077226614058796,-0.23554658430654285,0.033193652440841624
131,-4.744018604058043,-0.15513070091206518,0.03436629492792794,0.19742766653784644,0.05864674092891294
132,-4.747121218076285,0.23580096456329938,0.03831484825868487,-0.3785218836391692,0.09501676783517236
133,-4.742405198785019,-0.18874489558405574,0.030744410585901487,0.2690913394585513,0.06640875069266394
134,-4.7461800966967,0.1778256429032228,0.03612623737507251,-0.2714671888924541,0.05544668360785469
135,-4.742623583838636,-0.14952567639185962,0.030696893597223433,0.2298582076688122,0.047690126525497034
136,-4.745614097366474,0.18453879363769124,0.035294057750599676,-0.26197895495570017,0.055082212914090926
137,-4.7419233214937195,-0.12721785745637296,0.030054478651485673,0.21573909120735002,0.030849507884949817
138,-4.744467678642847,0.12866307979220246,0.03436926047563267,-0.15907429364605657,0.014615229096552912
139,-4.7418944170470025,0.010764002727701949,0.03118777460271154,0.02777245473463827,0.0007112645798500067
140,-4.741679136992449,0.06801547531542329,0.0317432236974043,-0.04889527276788283,0.000867015168760964
141,-4.74031882748614,0.05470528536884585,0.030765318242046646,-0.0196091052792047,0.0011658260144330173
142,-4.739224721778763,0.07539837449297451,0.03037313613646255,-0.04159047376864065,0.0046667606582386865
143,-4.737716754288903,0.13689630092022276,0.029541326661089738,-0.12486648743399356,0.013599090007457444
144,-4.734978828270498,0.03537388615764142,0.027043996912409867,0.03603457819938752,0.0015371061311136942
145,-4.7342713505473455,0.07550199320265681,0.02776468847639762,-0.016185606167453945,0.003676714424042722
146,-4.732761310683292,0.12307784269744848,0.02744097635304854,-0.07936010610105952,2.8493280788977196e-05
147,-4.730299753829343,0.12245202277092697,0.02585377423102735,-0.07035509503772114,0.002033162747561345
148,-4.7278507133739245,0.10544933203711505,0.024446672330272926,-0.037259419258668526,0.002958221479009581
149,-4.725741726733182,0.1329135777514569,0.023701483945099557,-0.07125687236717915,0.0075678824029943165
150,-4.723083455178153,0.0756395199182769,0.022276346497755974,0.02159766867655949,0.0009560295213762205
151,-4.7215706647797875,0.08749278842587398,0.022708299871287165,0.01037088146548618,0.006679294200277207
152,-4.71982080901127,0.1612445249072999,0.02291571750059689,-0.09355253459533744,0.004575846648060506
153,-4.716595918513124,0.1324814032335627,0.02104466680869014,-0.04368254856718063,0.00878255130597078
154,-4.713946290448453,0.19783728552552562,0.020171015837346526,-0.13550798893332758,0.05493830744993834
155,-4.709989544737942,-0.08206889628789729,0.017460856058679974,0.2901957491592656,0.02365903975019085
156,-4.7116309226637,0.2527745657542053,0.023264771041865286,-0.20685964933373252,0.06586990091004882
157,-4.7065754313486154,-0.011599253436067491,0.019127578055190636,0.19643299082252214,0.0010783013067120137
158,-4.706807416417337,0.3817600893250241,0.02305623787164108,-0.3878749244737764,0.15071712948459987
159,-4.699172214630836,-0.02236321535394009,0.015298739382165551,0.224926852102954,0.003741642320462261
160,-4.699619478937914,0.27808246021216393,0.01979727642422463,-0.22119126854407817,0.08679422303977531
161,-4.694057829733671,-0.03811620642067387,0.015373451053343066,0.2588338071984266,0.011554869492985042
162,-4.694820153862085,0.38942863516671034,0.0205501271973116,-0.3778880546784293,0.21178827451506485
163,-4.687031581158751,-0.16590383160116962,0.012992366103743012,0.46097607292872916,0.0722765996435994
164,-4.690349657790774,0.3203636628251969,0.022211887562317595,-0.26454395936493397,0.08050000277186142
165,-4.68394238453427,0.06534921754950374,0.016921008375018916,0.12441310844628106,0.01332165372001341
166,-4.682635400183281,0.2481468003676738,0.019409270543944538,-0.1447694736238489,0.03301511499030255
167,-4.677672464175927,0.1145356295522934,0.01651388107146756,0.061315500571572756,0.013781027951931047
168,-4.675381751584881,0.2288946656543492,0.017740191082899013,-0.10534480375415997,0.019801333594367275
169,-4.670803858271794,0.31484010404560525,0.015633295007815812,-0.2290273330629638,0.06340626377118132
170,-4.664507056190883,0.11142218495542014,0.011052748346556536,0.08065826135700777,0.024959057195499755
171,-4.662278612491774,0.32284131642585906,0.012665913573696692,-0.23320162345777135,0.0940451547516504
172,-4.655821786163258,0.02881665748872786,0.008001881104541263,0.21152366768728792,0.013069332244395156
173,-4.6552454530134835,0.3604800279240831,0.012232354458287022,-0.2836029327822338,0.1285978531217327
174,-4.648035852455002,-0.0006371961385795433,0.006560295802642346,0.26162860073025473,0.00317495832703553
175,-4.648048596377773,0.27449338092526265,0.01179286781724744,-0.1491296710707029,0.05580670548987732
176,-4.642558728759268,0.07095531601581517,0.008810274395833382,0.15962321952234998,0.020615377482468677
177,-4.641139622438952,0.3279870440400338,0.012002738786280382,-0.2233192221652095,0.1010126213093822
178,-4.634579881558151,0.017757334667707514,0.007536354342976192,0.2455205426653826,0.009267707131241108
179,-4.634224734864797,0.3303271215434028,0.012446765196283844,-0.2211051558237334,0.11236019562321395
180,-4.627618192433929,-0.012111727947190565,0.008024662079809175,0.2961725849343843,0.0005218042110889349
181,-4.627860426992873,0.3649138217924881,0.013948113778496862,-0.2669883054648559,0.1389763984643349
182,-4.620562150557023,-0.019618996211401285,0.008608347669199743,0.31385542682659223,0.0022592897482753803
183,-4.620954530481251,0.3919572469792126,0.014885456205731588,-0.3009552406670338,0.1593163513462283
184,-4.613115385541667,-0.01913755564235048,0.008866351392390913,0.3199948102325723,0.0019443344507289828
185,-4.613498136654513,0.3936965796426964,0.01526624759704236,-0.29662537935242844,0.12548190836052175
186,-4.60562420506166,0.07150485028731468,0.00933374000999379,0.19109400113525932,0.024205185291904754
187,-4.604194108055913,0.36585381426973584,0.013155620032698977,-0.2476661327840241,0.10833185515732376
188,-4.596877031770519,0.0676140802282722,0.008202297377018494,0.20352239722276272,0.022562403255476975
189,-4.5955247501659535,0.3538703566884045,0.012272745321473748,-0.22343612516511757,0.11972863298024872
190,-4.588447343032185,0.013857472185687059,0.007804022818171397,0.29015288899224567,0.009006311662483443
191,-4.588170193588471,0.3386289779415241,0.01360708059801631,-0.194695175683469,0.07193727572646502
192,-4.581397614029641,0.1256203673241874,0.00971317708434693,0.1287885196155918,0.03325690383537236
193,-4.578885206683157,0.3722640769527745,0.012288947476658766,-0.2383039634547186,0.0935073023469541
194,-4.571439925144102,0.1196884435937226,0.007522868207564394,0.14414373892197085,0.025492222514997415
