,X,v,theta,theta_dot,energy
0,0.0,2.0,0.17453292519943295,0.0,0.07836456086912356
1,0.04,1.9594104047868932,0.17453292519943295,0.11101198632031961,0.09377070619553682
2,0.07918820809573787,2.0034340947150713,0.17675316492583934,0.09703224381818462,0.39591169231640505
3,0.1192568899900393,2.192904399076371,0.17869380980220304,-0.1310499591292778,0.06759381547374843
4,0.1631149779715667,2.1603214792201713,0.1760728106196175,-0.030696986531777423,0.16190070389747752
5,0.20632140755597014,2.23085154507416,0.17545887088898193,-0.08335805518406358,0.31244308029055545
6,0.25093843845745334,2.364957185723079,0.17379170978530067,-0.2301074036039788,0.1305905001465348
7,0.29823758217191493,2.4165187243834816,0.1691895617132211,-0.25544669845620815,0.08745883580169052
8,0.34656795665958456,2.4495579645282426,0.16408062774409696,-0.2547931750558226,0.04166487501900405
9,0.3955591159501494,2.430622048750951,0.1589847642429805,-0.17874725475524647,0.20737570576017442
10,0.4441715569251684,2.5117490994588607,0.15540981914787558,-0.2523582708298772,0.19456107781474033
11,0.4944065389143456,2.5853503630125605,0.15036265373127802,-0.3159228346240583,0.2723109102294348
12,0.5461135461745968,2.686402130765339,0.14404419703879687,-0.42174997709386797,0.2524080785234644
13,0.5998415887899036,2.59221332376847,0.13560919749691952,-0.23972725986238233,0.12456853590804047
14,0.651685855265273,2.637318473034839,0.13081465229967187,-0.26701681016496176,0.23296155341438246
15,0.7044322247259698,2.721940876413747,0.12547431609637263,-0.3545159771322798,0.15653458970002349
16,0.7588710422542447,2.7765504208901777,0.11838399655372704,-0.3989935895324949,0.0892573485954325
17,0.8144020506720483,2.8064239182923014,0.11040412476307715,-0.4087665446942102,0.22606620223019488
18,0.8705305290378943,2.725833739575692,0.10222879386919295,-0.2562243557236892,0.14700176403714404
19,0.9250472038294082,2.7771836254033855,0.09710430675471916,-0.302844109307887,0.3642975741950943
20,0.9805908763374759,2.9043314188380687,0.09104742456856142,-0.4641635029513008,0.022018118468350393
21,1.0386775047142374,2.8956071133640156,0.0817641545095354,-0.42440027284263543,0.11211643972824233
22,1.0965896469815177,2.85644548015397,0.0732761490526827,-0.34184218557644797,0.24271614231445482
23,1.153718556584597,2.9387256480508435,0.06643930534115375,-0.4434073256553789,0.18049086505348239
24,1.212493069545614,2.998102257639712,0.05757115882804617,-0.5127569495382285,0.27504314443851186
25,1.2724551146984082,2.90711342816872,0.0473160198372816,-0.3595832532560872,0.24350712063616067
26,1.3305973832617826,2.824274255288453,0.04012435477215986,-0.22155784382261492,0.045543962275978594
27,1.3870828683675516,2.8079144339221913,0.03569319789570756,-0.18524446794524008,0.24685114750799922
28,1.4432411570459953,2.8934224440732055,0.031988308536802755,-0.30293321652919475,0.14844856722121533
29,1.5011096059274593,2.8426772428288576,0.02592964420621886,-0.21745139626492677,0.1435877953551487
30,1.5579631507840366,2.8917556999003806,0.021580616280920326,-0.28342187379022077,0.20129463701791772
31,1.6157982647820441,2.9596615606052223,0.01591217880511591,-0.37891273805800213,0.10936295491725018
32,1.6749914959941485,2.995695877481922,0.008333924043955868,-0.428279387516013,0.05038910419631708
33,1.734905413543787,3.0120953509887616,-0.00023166370636439233,-0.45042759821436607,0.09466774326868364
34,1.7951473205635622,2.981226148933995,-0.009240215670651714,-0.404191905503796,0.041168379468241485
35,1.854771843542242,2.967801337304108,-0.017324053780727634,-0.38677213247569475,0.014593845620598744
36,1.9141278702883242,2.9728731384637253,-0.02505949643024153,-0.3994717096686395,0.2627835024808941
37,1.9735853330575988,2.8864648689363714,-0.03304893062361432,-0.277266721010999,0.12634761536507752
38,2.0313146304363263,2.844047428072458,-0.0385942650438343,-0.22338992075375447,0.22662701057991408
39,2.0881955789977753,2.7665874686181224,-0.04306206345890939,-0.11863040157184014,0.16734400802943009
40,2.143527328370138,2.8263229311473266,-0.04543467149034619,-0.22080686503411864,0.3609134713778415
41,2.2000537869930845,2.951978608195022,-0.049850808791028565,-0.4224490680488002,0.02400251907907435
42,2.259093359156985,2.944700465451757,-0.05829979015200457,-0.4261954845295379,0.3528263459688457
43,2.3179873684660204,3.0631625341196598,-0.06682369984259533,-0.6207171260223329,0.03701304330465697
44,2.3792506191484137,3.0521986500067704,-0.07923804236304198,-0.6239395545064036,0.2308898214330691
45,2.440294592148549,2.9788422124585447,-0.09171683345317005,-0.5375217671352116,0.21319244356179953
46,2.49987143639772,2.9097687775986993,-0.10246726879587428,-0.4612740530402098,0.05466645937137401
47,2.558066811949694,2.892758576197887,-0.11169274985667849,-0.46596527085008266,0.3746548363730223
48,2.6159219834736516,2.767156231732975,-0.12101205527368014,-0.3115051598967088,0.3542899012963645
49,2.671265108108311,2.643446671040682,-0.12724215847161433,-0.16278863143854694,0.12708794588949998
50,2.724134041529125,2.6922256915690896,-0.13049793110038527,-0.27267397123683024,0.07445558210138761
51,2.7779785553605065,2.6669929527636045,-0.13595141052512189,-0.2734042752699547,0.3335352875122789
52,2.8313184144157786,2.546494973341813,-0.14141949603052098,-0.13417179191517634,0.13212839436797721
53,2.8822483138826147,2.59915831344643,-0.1441029318688245,-0.2538170712793787,0.003554576855567529
54,2.9342314801515434,2.602522483127546,-0.14917927329441208,-0.3010308089533984,0.29634046556595534
55,2.9862819298140946,2.4931242860143663,-0.15519988947348004,-0.18245228948657047,0.1149284594495591
56,3.0361444155343817,2.450262357789656,-0.15884893526321145,-0.16437796704856653,0.2749728389013455
57,3.0851496626901747,2.342879548067131,-0.16213649460418278,-0.0518371056372611,0.3990403003527077
58,3.1320072536515173,2.179144699362952,-0.163173236716928,0.1430844552888554,0.21588211781251831
59,3.1755901476387765,2.085254354731198,-0.16031154761115088,0.23428888928585262,0.015293104181822633
60,3.2172952347334003,2.0946074274180173,-0.15562576982543383,0.17350919796013842,0.3011033548301111
61,3.259187383281761,1.9573145972439017,-0.15215558586623107,0.33139010100224453,0.2895571556413025
62,3.298333675226639,1.8164461692790106,-0.14552778384618617,0.4956901560823539,0.013191349833594082
63,3.334662598612219,1.8114777026198368,-0.1356139807245391,0.4604297688506243,0.07680451997688544
64,3.370892152664616,1.8542099962446776,-0.1264053853475266,0.3571714357982625,0.3561146100720731
65,3.4079763525895097,1.6704428150608468,-0.11926195663156135,0.5935586252256062,0.01892083963738787
66,3.441385208890727,1.6829592149584156,-0.10739078412704922,0.539937431608756,0.2071767802358191
67,3.4750443931898953,1.5661724590110948,-0.0965920354948741,0.6825961406500527,0.0837138226397733
68,3.5063678423701172,1.6186081257793903,-0.08294011268187305,0.5759553547731209,0.04345387728130597
69,3.538740004885705,1.5940017150038623,-0.07142100558641064,0.588381646138216,0.009231140444708822
70,3.570620039185782,1.5894432226599784,-0.059653372663646315,0.574222023824751,0.02234126157323182
71,3.6024089036389815,1.6037657727826315,-0.04816893218715129,0.5352487208785588,0.027531120549145353
72,3.634484219094634,1.587946937702904,-0.037463957769580114,0.5447932608549623,0.005772486955290183
73,3.666243157848692,1.5919645611510551,-0.026568092552480868,0.527759227159879,0.195560272334334
74,3.698082449071713,1.7103993026567248,-0.01601290800928329,0.3423597099640563,0.10398649977163317
75,3.7322904351248476,1.6518491519333787,-0.009165713810002162,0.42546608274787046,0.08833795880484699
76,3.765327418163515,1.60040917434519,-0.0006563921550447518,0.4999281259069192,0.08984483009524437
77,3.7973356016504187,1.654421084837211,0.009342170363093632,0.41871729834246213,0.24273624437391464
78,3.830424023347163,1.5127762234615374,0.017716516329942873,0.6339218769449286,0.07681712268616417
79,3.8606795478163938,1.5611427114254133,0.030394953868841446,0.5665919138005993,0.02642855483926161
80,3.8919024020449022,1.5444695093389174,0.04172679214485343,0.6005249056838179,0.33092398945605084
81,3.9227917922316804,1.7492720414920508,0.05373729025852979,0.3058526260607598,0.269771945308086
82,3.9577772330615213,1.5992657568551771,0.05985434277974498,0.5463284124977797,0.1004078792569878
83,3.989762548198625,1.5381250120756351,0.07078091102970058,0.6554619707795111,0.13728732122975204
84,4.020525048440137,1.622541520193399,0.0838901504452908,0.5499464836692968,0.030792554076178195
85,4.052975878844006,1.603143457356914,0.09488908011867674,0.6035760374241593,0.09404310657425677
86,4.085038747991144,1.6580611713093356,0.10696060086715992,0.5494255890698492,0.016727795940975454
87,4.11819997141733,1.6468820763383307,0.1179491126485569,0.5974848916484076,0.029926533147870974
88,4.151137612944097,1.627823474984916,0.12989881048152505,0.6604708573387362,0.07873849671671974
89,4.183694082443795,1.6723258129250762,0.14310822762829978,0.6323626873546592,0.17742911748829804
90,4.217140598702296,1.7719882574975487,0.15575548137539297,0.5263275764025891,0.10874871881204781
91,4.252580363852247,1.8288190457653426,0.16628203290344476,0.48772051660739585,0.018619434936847156
92,4.289156744767554,1.816725129041026,0.17603644323559267,0.5542731180568997,0.02456209598776182
93,4.325491247348374,1.8013266531945078,0.18712190559673067,0.6285016946964592,0.1435859842045858
94,4.361517780412265,1.8751652322168961,0.19969193949065986,0.5743706002677372,0.1979645828931743
95,4.399021085056603,1.973768737796337,0.2111793514960146,0.48772457066777863,0.2865142293239103
96,4.43849645981253,1.83125253397315,0.22093384290937018,0.7583760290529826,0.4430901231795058
97,4.475121510491993,2.0593162777226586,0.23610136349042984,0.4890230659462616,0.012621369927452032
98,4.516307836046447,2.0502282358698913,0.24588182480935508,0.5710476357344952,0.0735487398508773
99,4.557312400763845,2.0813593602792038,0.257302777524045,0.5973184888968981,0.013655483374051067
100,4.598939587969429,2.084226192879461,0.26924914730198296,0.6679748818074108,0.5053874102960325
101,4.640624111827019,2.3127789569072643,0.2826086449381312,0.41570382832274877,0.07772075273290409
102,4.6868796909651635,2.341353109617793,0.2909227215045862,0.4565282072072035,0.009356404449116335
103,4.733706753157519,2.341336644889414,0.3000532856487303,0.540881737388909,0.4315118239900778
104,4.780533486055307,2.5142894059876504,0.3108709203965085,0.3799416045276592,0.03314604378602654
