,X,v,theta,theta_dot,energy
0,0.0,0.0,-0.17453292519943295,0.0,0.0
1,0.0,-0.18875760358366908,-0.17453292519943295,0.22778236293972584,0.033879354539297926
2,-0.0037751520716733816,-0.3710235266643809,-0.16997727794063844,0.445975139945366,0.06399817414486574
3,-0.011195622604960999,-0.5461677656555898,-0.1610577751417311,0.655172364122508,0.06216096535414409
4,-0.022118977918072796,-0.42682944605212764,-0.14795432785928095,0.43133502199365936,0.060703508532412784
5,-0.03065556683911535,-0.5698966705098527,-0.13932762741940777,0.6002512371523461,0.03583992746335688
6,-0.042053500249312405,-0.5036556371333009,-0.12732260267636084,0.4610226175309807,0.03889618413888436
7,-0.05212661299197842,-0.5803745295441229,-0.11810215032574121,0.5378376559510265,0.0433747994400681
8,-0.06373410358286088,-0.5027104486334987,-0.10734539720672068,0.38751167085894733,0.028018932232734578
9,-0.07378831255553087,-0.4449071903256894,-0.09959516378954172,0.2698068841817588,0.0471545230745658
10,-0.08268645636204465,-0.549738727128009,-0.09419902610590655,0.39704235549227584,0.033818585689699546
11,-0.09368123090460483,-0.48640547842737625,-0.08625817899606103,0.2748100853172281,0.03189698161303338
12,-0.10340934047315235,-0.41955941000252317,-0.08076197728971647,0.14958530820545254,0.07195242307668842
13,-0.11180052867320281,-0.5883872495654047,-0.07777027112560742,0.37828341402794957,0.04719930802550046
14,-0.1235682736645109,-0.6678629862732728,-0.07020460284504842,0.47429526751264695,0.01574227210250614
15,-0.13692553338997634,-0.6431221636827048,-0.060718697494795484,0.41665224827698805,0.012769852810166342
16,-0.14978797666363045,-0.6223108565820074,-0.05238565252925573,0.36765248449647686,0.013618551197443589
17,-0.1622341937952706,-0.6435021195253825,-0.04503260283932619,0.38400143460160735,0.0015521180934528586
18,-0.17510423618577825,-0.645282078499139,-0.037352574147294045,0.3734335554370766,0.007536118846041546
19,-0.18800987775576103,-0.6330516287089764,-0.02988390303855251,0.3441215739931719,0.024887154326901403
20,-0.20067091032994055,-0.5933038734246849,-0.023001471558689073,0.2757420017134517,0.001816210834779139
21,-0.21253698779843425,-0.5899249941681123,-0.017486631524420038,0.2639131871547856,0.006181192371197084
22,-0.22433548768179648,-0.5792411573811052,-0.012208367781324326,0.24274907444365273,0.009174648206082303
23,-0.23592031082941858,-0.5948194470329721,-0.0073533862924512715,0.26252559658366653,0.03599022403702207
24,-0.24781669977007803,-0.6549530915839556,-0.0021028743607779407,0.35056174866130596,0.042572266586365884
25,-0.26091576160175717,-0.5899267837529066,0.004908360612448179,0.25240425797191873,0.05130572511934365
26,-0.2727142972768153,-0.5034657677346001,0.009956445771886552,0.12415734843138063,0.027927122124823688
27,-0.2827836126315073,-0.5583382836155392,0.012439592740514165,0.20938918931331932,0.023849932678191497
28,-0.2939503783038181,-0.6009123583894105,0.016627376526780552,0.27690250643697434,0.03718451273279187
29,-0.3059686254716063,-0.5394886467246361,0.02216542665552004,0.1896678984411415,0.00440492488956422
30,-0.31675839840609904,-0.5317107479450393,0.02595878462434287,0.18452001799080303,0.01606959525124549
31,-0.3273926133649998,-0.5620381902030662,0.02964918498415893,0.23762688050858521,0.03576339016966828
32,-0.3386333771690611,-0.6257528155576259,0.034401722594330636,0.3418723975202503,0.055976763280724304
33,-0.35114843348021363,-0.5367554730399225,0.041239170544735644,0.21856748237501117,0.013843418562279082
34,-0.3618835429410121,-0.5117115002513363,0.04561052019223587,0.19315434215711244,0.006789359355909296
35,-0.3721177729460388,-0.5255309997508922,0.04947360703537812,0.2272668774945788,0.052056396629042365
36,-0.38262839294105666,-0.4276804384151114,0.05401894458526969,0.09520993351887588,0.042195863725468886
37,-0.3911820017093589,-0.33123552288119995,0.05592314325564721,-0.0333725710762528,0.025911863217666854
38,-0.3978067121669829,-0.40799079283057965,0.055255691834122156,0.09801318321189889,0.009536971318428795
39,-0.40596652802359445,-0.4318324880580401,0.05721595549836014,0.14995805305380433,0.04702114168886559
40,-0.41460317778475525,-0.324743232117771,0.060215116559436226,0.006399342658745588,0.015115628704542675
41,-0.4210980424271107,-0.3710442107271247,0.060343103412611135,0.09341748591339014,0.030925879753093216
42,-0.4285189266416532,-0.2896737444224551,0.06221145313087894,-0.010685953106487858,0.004258824852832712
43,-0.4343124015301023,-0.27624784774114786,0.061997734068749186,-0.01250746782546771,0.027551067569344785
44,-0.4398373584849253,-0.18006053522079798,0.06174758471223983,-0.13829557839149087,0.011551726465683702
45,-0.4434385691893412,-0.24140785286008395,0.05898167314441001,-0.028307717259971762,0.004985911869922898
46,-0.4482667262465429,-0.26228950877645824,0.05841551879921057,0.020290858944825074,0.005705160138788617
47,-0.4535125164220721,-0.2418348275264679,0.05882133597810708,0.006825568186668889,0.024167940116953668
48,-0.45834921297260145,-0.145077630179327,0.05895784734184045,-0.12077571687380627,0.014714311585216527
49,-0.461250765576188,-0.24124391299302422,0.05654233300436433,0.04054663930588133,0.01005755879624897
50,-0.4660756438360485,-0.20107619086011502,0.05735326579048196,-0.002994066632780998,0.006152709923016268
51,-0.47009716765325077,-0.17207146606902998,0.057293384457826335,-0.0295769999517572,0.013622272968265011
52,-0.47353859697463135,-0.24951038411843507,0.056701844458791194,0.10322582371994637,0.0012517465724064282
53,-0.47852880465700004,-0.24533412603244692,0.05876636093319012,0.11363291511226001,0.009369321703438507
54,-0.483435487177649,-0.2081252298481417,0.06103901923543532,0.0751832857239998,0.013376323429535309
55,-0.4875979917746118,-0.1452675072837812,0.06254268494991531,-0.0009933776652670256,0.003978458063648886
56,-0.49050334192028744,-0.1728650855971524,0.06252281739660998,0.058697617738561025,0.030731689675246098
57,-0.49396064363223047,0.00234659193177722,0.0636967697513812,-0.18523664088383626,2.4202516520408147e-05
58,-0.49391371179359495,0.005335036147635357,0.059992036933704466,-0.17099602703457606,0.0002147183748301846
59,-0.49380701107064223,-0.08190727572938047,0.05657211639301295,-0.022740899344810828,0.00033767963754161164
60,-0.49544515658522986,-0.07874548005076425,0.056117298406116733,-0.010852673607743099,0.0036228400551471212
61,-0.49702006618624517,-0.0349528271319197,0.055900244933961875,-0.05994842013952925,0.010018139629890814
62,-0.4977191227288836,0.22362188678201939,0.05470127653117129,-0.43077853178145176,0.04612630814423629
63,-0.4932466849932432,0.0023740623883315437,0.046085705895542256,-0.08332903338132402,0.00010945068368178244
64,-0.49319920374547654,0.0774478350228407,0.04441912522791577,-0.1822757251723775,0.0034460182487202153
65,-0.49165024704501975,0.028215809047727546,0.04077361072446822,-0.09544559868406567,0.0009412399720934154
66,-0.4910859308640652,-0.0108159389320939,0.03886469875078691,-0.024962516978084784,0.00034413684843485827
67,-0.4913022496427071,-0.039465818853040485,0.03836544841122521,0.029403196177614485,0.0014100868697763788
68,-0.4920915660197679,-0.003940521288556972,0.0389535123347775,-0.012568862524677954,0.0003665773072535946
69,-0.492170376445539,-0.08376362070322318,0.03870213508428394,0.11852439343139046,0.0010144601252232554
70,-0.49384564885960347,-0.07169180862884342,0.041072622952911746,0.11180582238544232,0.006349382946309052
71,-0.49527948503218033,0.02069982784285805,0.04330873940062059,-0.01459279665534613,0.0012362733022320193
72,-0.4948654884753232,0.08026557640625592,0.043016883467513665,-0.09112884996892795,0.00326552343701325
73,-0.4932601769471981,0.03780602798027134,0.04119430646813511,-0.0148553816027866,0.0006451670380191847
74,-0.49250405638759265,0.054165365197680636,0.040897198836079375,-0.027265868363036235,0.000677957924834743
75,-0.49142074908363903,0.04108424997701343,0.04035188146881865,0.004359822286026823,0.007061379882176899
76,-0.49059906408409876,0.20736558532183483,0.040439077914539184,-0.2329989106386867,0.006935941675713639
77,-0.4864517523776621,0.17240550653589692,0.03577909970176545,-0.1687158160152668,0.0043220722569921885
78,-0.48300364224694414,0.19748712243059335,0.03240478338146012,-0.19579735022810563,0.006074653443662283
79,-0.4790538997983323,0.2284465873014418,0.02848883637689801,-0.23268682839979907,0.011394955041995367
80,-0.47448496805230345,0.1770176497943401,0.023835099808902027,-0.14720014038227947,0.0016306679345426435
81,-0.47094461505641666,0.18601624480685494,0.020891097001256437,-0.15368734307194623,0.008320487503873288
82,-0.46722429016027955,0.23105715332176183,0.01781735013981751,-0.21509242744728974,0.003351075039688924
83,-0.4626031470938443,0.21602824847493673,0.013515501590871715,-0.18731462457778458,0.028785245373089005
84,-0.4582825821243456,0.08050562693225422,0.009769209099316023,0.019924177699253504,0.0055757610123538925
85,-0.4566724695857005,0.1471834577601076,0.010167692653301093,-0.07721569411870677,0.002715004492822598
86,-0.45372880043049835,0.12860174749298373,0.008623378770926957,-0.04635531933233682,0.0057616879085966455
87,-0.45115676548063866,0.17291573818600073,0.007696272384280221,-0.11028859197030604,0.013438907903523239
88,-0.44769845071691866,0.09471814437281643,0.0054905005448741,0.009267006624416346,0.004543544334908424
89,-0.44580408782946235,0.04804758308832446,0.005675840677362427,0.08088599241988173,0.004188612068638576
90,-0.4448431361676959,0.12697074157338054,0.0072935605257600615,-0.035828150221150934,0.002349169368122108
91,-0.44230372133622825,0.14515100310727777,0.006576997521337042,-0.06095352940378396,0.00728307640842406
92,-0.4394007012740827,0.19496115784258142,0.005357926933261363,-0.13373352220725876,0.009704595910784437
93,-0.43550147811723106,0.14475863243800202,0.002683256489116188,-0.056855592003473454,0.009202260622653316
94,-0.432606305468471,0.0815736478813295,0.0015461446490467187,0.038710420100367945,0.0009174819020022363
95,-0.4309748325108444,0.0922927423144792,0.0023203530510540775,0.023086364014852763,0.0048020148848930124
96,-0.4291289776645548,0.042068931281577376,0.002782080331351133,0.09910406094396504,0.0030714022596889452
97,-0.4282875990389233,0.10636779393566173,0.0047641615502304335,0.003474070778385324,0.009180532698237289
98,-0.42616024316021006,0.19037873270400396,0.00483364296579814,-0.12114024906755848,0.004334501728098604
99,-0.42235266850612996,0.2131835019607458,0.0024108379844469704,-0.15392591784549545,0.00798093205874469
100,-0.41808899846691505,0.25091216262581056,-0.0006676803724629385,-0.20980995869915156,0.0391402451413021
101,-0.41307075521439884,0.09272164254292245,-0.00486387954644597,0.02727947051960941,0.008850295907744294
102,-0.4112163223635404,0.18468445614738718,-0.004318290136053782,-0.11209309314313912,0.030027488374931154
103,-0.4075226332405926,0.02162383178851751,-0.006560151998916564,0.13122598952386752,0.0024086744052998488
104,-0.4070901566048223,0.10689507914124986,-0.0039356322084392135,0.0013931999049708599,0.004371667356188485
105,-0.4049522550219973,0.1468271752718581,-0.003907768210339797,-0.0596615532865997,0.008155839152148351
106,-0.4020157115165601,0.09167111852268,-0.005100999276071791,0.02192301920643632,0.0023897654183993684
107,-0.40018228914610654,0.11690380765560512,-0.0046625388919430645,-0.017425209357879716,0.00037416010810425196
108,-0.39784421299299444,0.11382685982655258,-0.005011043079100659,-0.01418061924974474,0.006714396676443703
109,-0.3955676757964634,0.05602201438243905,-0.005294655464095554,0.0710523197853981,0.0017803193622858997
110,-0.3944472355088146,0.026784069668071356,-0.0038736090683875925,0.11335200069612401,0.0017879303179485066
111,-0.3939115541154532,0.08145811659692757,-0.001606569054465112,0.030202707365775502,0.008162555933881733
112,-0.39228239178351465,0.17762235084143496,-0.0010025149071496019,-0.11451578894531071,0.0004025056803470821
113,-0.38872994476668593,0.1753591663012563,-0.0032928306860558164,-0.11141575317431064,0.01029388381000505
114,-0.3852227614406608,0.11643331270642054,-0.005521145749542029,-0.02399554244187828,0.005982073498005413
115,-0.3828940951865324,0.06591405475998531,-0.006001056598379594,0.05015898089128329,0.003719358941352071
116,-0.3815758140913327,0.012789633039746402,-0.004997876980553929,0.12807987856098607,0.0008370351732161248
117,-0.3813200214305377,0.05673852905341875,-0.0024362794093342076,0.060687988165840534,0.0054870038278481996
118,-0.38018525084946936,-0.033200247242847106,-0.001222519646017397,0.19487948680182526,0.004408214763301377
119,-0.3808492557943263,0.14349458160836814,0.0026750700900191084,-0.07052197910141222,0.013753539558157741
120,-0.37797936416215894,0.23910219241029035,0.0012646305079908639,-0.21314641251008662,0.0023153757692272914
121,-0.37319732031395314,0.22923769643252237,-0.0029982977422108687,-0.19797787910533152,0.02564506150498827
122,-0.3686125663853027,0.11567864598220137,-0.006957855324317499,-0.02852156729869465,0.017125280667997497
123,-0.3662989934656587,-0.030289103701204217,-0.007528286670291392,0.1883791643719294,0.00044028059731302053
124,-0.36690477553968276,-0.049951690980853065,-0.0037607033828528044,0.2156589141365507,0.00230200590800746
125,-0.36790380935929984,0.006040084785871112,0.0005524748998782096,0.13056620021151877,0.0010729665005392867
126,-0.3677830076635824,0.09344806453632698,0.003163798904108585,-0.00038332179230840535,0.0022781619977637947
127,-0.36591404637285585,0.06961397024814567,0.003156132468262417,0.036297796038435345,0.0030041097581410604
128,-0.36452176696789296,0.1106952623315147,0.003882088389031124,-0.024395933768336056,0.0013762329307805295
129,-0.36230786172126267,0.1228917059362913,0.0033941697136644026,-0.041549130200177295,0.003835321843847977
130,-0.35985002760253687,0.1537659913912359,0.0025631871096608565,-0.08686240764022553,0.001951154823562749
131,-0.35677470777471215,0.1664351237159434,0.0008259389568563459,-0.1051124675157713,0.006168941010222641
132,-0.3534460053003933,0.1291934257010912,-0.00127631039345908,-0.049007113521805486,0.0027064331090659245
133,-0.35086213678637146,0.10841540490434948,-0.0022564526638951896,-0.018215342865543712,0.0061836367515769545
134,-0.34869382868828447,0.16452135582425187,-0.002620759521206064,-0.10303745151482183,0.02285465492622032
135,-0.34540340157179944,0.02505997110505062,-0.004681508551502501,0.10538340474178651,0.00010482276417176113
136,-0.3449022021496984,0.028553043146544225,-0.002573840456666771,0.09876749560980445,0.00048622088174585465
137,-0.3443311412867675,0.04294604993227695,-0.0005984905444706818,0.07642134868391999,0.003960918355079432
138,-0.34347222028812197,0.12620175126335398,0.0009299364292077181,-0.04863813715618838,0.008570305568583177
139,-0.34094818526285486,0.19362297200990541,-4.2826313916049553e-05,-0.14949652327675544,0.012101221130406337
140,-0.33707572582265677,0.1304312947728055,-0.0030327567794511583,-0.05472159844431759,0.01081045406638802
141,-0.33446709992720064,0.21290756423913693,-0.00412718874833751,-0.1793270628319495,0.007712465789655117
142,-0.3302089486424179,0.17621883615777512,-0.0077137300049765,-0.12550782946472677,0.0056029284621188025
143,-0.3266845719192624,0.14427189733836204,-0.010223886594271037,-0.07985666103128597,0.017689764209541863
144,-0.32379913397249516,0.02170872519591606,-0.011821019814896756,0.10097271852314924,0.00243427783220762
145,-0.32336495946857685,0.11218420934997474,-0.009801565444433771,-0.03820632465866394,0.006136250409335392
146,-0.32112127528157736,0.05812220933284246,-0.01056569193760705,0.04000116596780995,0.00031566144389149454
147,-0.3199588310949205,0.0634114802800748,-0.009765668618250851,0.028961446754059497,0.007733806711165415
148,-0.318690601489319,0.18011841644753762,-0.00918643968316966,-0.1489616708969051,0.02802231088078363
149,-0.3150882331603682,0.022540040672510198,-0.012165673101107763,0.08469514394699487,2.3940246989291467e-05
150,-0.314637432346918,0.023599459734234694,-0.010471770222167866,0.07952951328656556,0.0010202774567744607
151,-0.31416544315223327,0.060325400747285915,-0.008881179956436554,0.02136497803024947,0.005443967870901392
152,-0.31295893513728756,-0.026194234547512643,-0.008453880395831566,0.14852828022319892,0.0036213490089599593
153,-0.31348281982823784,0.15563664030448476,-0.005483314791367587,-0.12669369701486277,0.015876324749748937
154,-0.31037008702214813,0.05237069049586912,-0.008017188731664843,0.026590812580692902,0.004788308211051462
155,-0.3093226732122307,0.13967410212228454,-0.007485372480050985,-0.10671712452788135,0.012314660278635644
156,-0.30652919116978505,0.05067039127713391,-0.009619714970608612,0.02458402258735637,0.0020235325010740136
157,-0.3055157833442424,0.0889286059336819,-0.009128034518861485,-0.03562879671951325,0.00725164902664546
158,-0.30373721122556874,0.008028658734638774,-0.00984061045325175,0.0830324637335152,0.00020769461000165929
159,-0.303576638050876,-0.008998167144910987,-0.008179961178581446,0.10567837315556237,0.00020245230907251814
160,-0.3037566013937742,-0.05596707700447666,-0.0060663937154701985,0.17372449911141752,0.005303532302298118
161,-0.3048759429338637,0.05175653579343663,-0.002591903733241848,0.010358544355546812,0.0021115122260472693
162,-0.30384081221799497,0.09123683162553481,-0.0023847328461309115,-0.049623719316648544,0.0021587831309231357
163,-0.30201607558548427,0.11494039234107634,-0.0033772072324638825,-0.08588007008150361,0.005923841801146762
164,-0.29971726773866275,0.06293980727626274,-0.005094808634093955,-0.00887253434340668,0.0023526271096904797
165,-0.2984584715931375,0.026310448859720795,-0.005272259320962088,0.044572922931333636,0.0012370396757771746
166,-0.2979322626159431,-0.016204495593276275,-0.0043808008623354155,0.10679441622158097,0.0013939352202362912
167,-0.2982563525278086,0.10367389060335466,-0.002244912537903796,-0.07430938893303891,0.003944959493910337
168,-0.2961828747157415,0.06533234280171171,-0.0037311003165645742,-0.017457215882771465,0.0028176978761015434
169,-0.2948762278597073,0.022791795503524476,-0.004080244634220003,0.04525621995834951,0.0007798265692937979
170,-0.2944203919496368,0.053467594690588635,-0.0031751202350530127,-0.001956684389548949,0.003421504196449098
171,-0.293351040055825,-0.009022173576084556,-0.0032142539228439916,0.09084401174249912,0.0005257673019624982
172,-0.2935314835273467,0.09585785708459349,-0.0013973736879940091,-0.06742021060496461,0.005816324434858471
173,-0.2916143263856548,0.03472626026222645,-0.0027457779000933016,0.023866267371423777,0.001896280997859938
174,-0.2909198011804103,-0.016895158623832833,-0.002268452552664826,0.10049084612055031,0.00043649143170428046
175,-0.29125770435288695,0.017681962305226083,-0.00025863563025381973,0.04795837369561488,0.0010113343651846313
176,-0.2909040651067824,0.06736210062959043,0.0007005318436584778,-0.026637870172961174,0.009815966418092747
177,-0.2895568230941906,-0.07741537882840428,0.0001677744401992543,0.19073425207261996,0.00746541797065045
178,-0.2911051306707587,0.02852831675547371,0.003982459481651653,0.03186803661858836,0.001377407521846737
179,-0.2905345643356492,0.0732994856503801,0.004619820214023421,-0.03411734417929163,0.0036727687326321983
180,-0.2890685746226416,0.02329250207181526,0.003937473330437588,0.04225055303703426,9.328657438536117e-05
181,-0.28860272458120534,0.019626342369248952,0.004782484391178274,0.04890736412959588,0.0008734563577194057
182,-0.28821019773382034,0.05855893528848044,0.005760631673770191,-0.008084812345130851,0.001256963203062922
183,-0.28703901902805073,0.0795499092922094,0.0055989354268675745,-0.037877134570019726,0.0036100092243387502
184,-0.28544802084220655,0.03421674269877894,0.00484139273546718,0.031767627907416655,0.0011977619218704093
185,-0.284763685988231,0.06691577027717434,0.005476745293615514,-0.015856974731046754,0.0042476413184279254
186,-0.2834253705826875,0.12944060870129953,0.005159605798994578,-0.10803267074166134,0.0019510492853182515
