,X,v,theta,theta_dot,energy
0,0.0,0.0,-0.3490658503988659,0.0,0.0
1,0.0,-0.4916173558803187,-0.3490658503988659,0.5923998802187762,0.052557761752640555
2,-0.009832347117606374,-0.5962026966037912,-0.33721785279449035,0.6392630674613703,0.07543114661718359
3,-0.021756401049682197,-0.7202610666838485,-0.32443259144526293,0.7175962537416117,0.10174609659440541
4,-0.03616162238335917,-0.859069686818918,-0.3100806663704307,0.8212283976157706,0.12878205587859204
5,-0.05334301611973753,-1.0066800618044274,-0.2936560984181153,0.9423745971021845,0.1056512037370613
6,-0.07347661735582608,-1.1090799823660804,-0.2748086064760716,1.0042997752733056,0.11914435149871241
7,-0.0956582170031477,-1.214176855698154,-0.25472261097060545,1.0762491416879005,0.0669806076759232
8,-0.11994175411711078,-1.266730109140629,-0.23319762813684744,1.0784542040796086,0.15764900594434725
9,-0.14527635629992336,-1.389468962940818,-0.21162854405525527,1.1896387271332072,0.1178443200370865
10,-0.17306573555873972,-1.4725705806709057,-0.18783576951259112,1.2497547721128428,0.1610278789055596
11,-0.20251714717215782,-1.5808447313516942,-0.16284067407033426,1.3544097411248035,0.012765267605165076
12,-0.2341340417991917,-1.5870222347276615,-0.13575247924783818,1.3158895568063422,0.0747669017632102
13,-0.2658744864937449,-1.5376455674770675,-0.10943468811171134,1.202717214434603,0.05083181800017082
14,-0.29662739784328623,-1.5028381341224812,-0.08538034382301928,1.1187087734915673,0.12181213905172329
15,-0.32668416052573584,-1.419928596548835,-0.06300616835318792,0.9697261531727408,0.04274798588152033
16,-0.35508273245671257,-1.3887831568541236,-0.0436116452897331,0.9045891332756015,0.22187226311651406
17,-0.38285839559379503,-1.2275996685316368,-0.02551986262422107,0.6502260300128095,0.09190742067737144
18,-0.40741038896442777,-1.1524048126306128,-0.012515342023964881,0.5299684476598757,0.013265203234255642
19,-0.43045848521704,-1.1636985330067706,-0.0019159730707673656,0.5432282870079417,0.0973823770792889
20,-0.4537324558771754,-1.2470839147508868,0.008948592669391468,0.6677428343081684,0.15858546117594396
21,-0.4786741341721932,-1.1200512445216706,0.022303449355554835,0.4798323093719503,0.10291715517357905
22,-0.5010751590626266,-1.0289446835788656,0.03190009554299384,0.34976312733086534,0.00877111850955981
23,-0.5216540527342038,-1.0209517525027008,0.03889535808961115,0.34715686803089607,0.02429133885402135
24,-0.5420730877842579,-0.9979303838108207,0.04583849545022907,0.3240832847883477,0.01552027158104723
25,-0.5620316954604743,-0.9831842359161298,0.052320161145996025,0.3154590957288215,0.04966852795743716
26,-0.5816953801787969,-0.9339238165165947,0.05862934306057246,0.2570446881380925,0.0583357621987673
27,-0.6003738565091288,-0.8730640626147523,0.06377023682333431,0.1831390652937253,0.04658558300959468
28,-0.6178351377614238,-0.8214320650688146,0.06743301812920882,0.12458423729605404,0.02189675645658247
29,-0.6342637790628002,-0.8485729339389995,0.0699247028751299,0.18501329997530264,0.021566139437584408
30,-0.6512352377415802,-0.8245364752017007,0.07362496887463596,0.1695878339301336,0.06322420383252918
31,-0.6677259672456142,-0.7501037238004091,0.07701672555323863,0.0798673653364447,0.07554250497040516
32,-0.6827280417216224,-0.6525162151204071,0.07861407285996752,-0.04345943718620447,0.0622718148214693
33,-0.6957783660240305,-0.5608546784227577,0.07774488411624343,-0.1574383597218751,0.07086339517980572
34,-0.7069954595924857,-0.6836277795422845,0.07459611692180593,0.04899899443505684,0.06872231317879114
35,-0.7206680151833313,-0.5863392690543832,0.07557609681050706,-0.07461700789595287,0.0307088369488401
36,-0.732394800564419,-0.5366359649700333,0.074083756652588,-0.12676091924819488,0.08715621069047187
37,-0.7431275198638196,-0.6944022394693439,0.0715485382676241,0.13100008224454757,0.06418503653971289
38,-0.7570155646532065,-0.6045017587949861,0.07416853991251506,0.01751170504196249,0.01088704678600913
39,-0.7691055998291062,-0.5879743792125468,0.0745187740133543,0.014574356186199223,0.049017983124313956
40,-0.7808650874133571,-0.507646017402737,0.07481026113707828,-0.08369554221693111,0.015947396142041145
41,-0.7910180077614118,-0.5391223758804705,0.07313635029273965,-0.014639355615279126,0.002003642879982306
42,-0.8018004552790212,-0.5365471268845715,0.07284356318043407,0.002991020666029711,0.02269651194933383
43,-0.8125313978167127,-0.49632394793992174,0.07290338359375466,-0.03578667175708042,0.00976934360947315
44,-0.8224578767755111,-0.5164986171206865,0.07218765015861305,0.015809561387953974,0.003904953531925369
45,-0.8327878491179248,-0.5249133627369115,0.07250384138637213,0.049603548228266306,0.0068717841543266345
46,-0.843286116372663,-0.5131269622486185,0.07349591235093746,0.05326785474670565,0.040089753657752476
47,-0.8535486556176354,-0.43762365641819767,0.07456126944587158,-0.03809300936117863,0.03407055156596414
48,-0.8623011287459993,-0.5143139294697423,0.073799409258648,0.09852349302910132,0.006229135621987529
49,-0.8725874073353941,-0.527282264060395,0.07576987911923003,0.13960038310013725,0.07202143850163369
50,-0.883133052616602,-0.393542626491584,0.07856188678123277,-0.038178456225179874,0.042045784357855685
51,-0.8910039051464337,-0.4983944752769667,0.07779831765672918,0.14168765252802082,0.07625388758238953
52,-0.900971794651973,-0.3483552265489142,0.08063207070728959,-0.05984083157480655,0.004362710285036511
53,-0.9079388991829512,-0.36162394232528217,0.07943525407579345,-0.016322273312891586,0.025507116074386018
54,-0.9151713780294569,-0.29411535034037284,0.07910880860953562,-0.09393643486580444,0.008357694455519373
55,-0.9210536850362644,-0.322559261087871,0.07723007991221953,-0.028170266523579193,0.0027219591971648057
56,-0.9275048702580219,-0.3318587001564698,0.07666667458174795,0.008420391955261008,0.021779998454437104
57,-0.9341420442611512,-0.2688776251194833,0.07683508242085317,-0.06325578698005084,0.010069635207158962
58,-0.9395195967635409,-0.3061105959886547,0.07556996668125215,0.01499618725577355,0.02278569456024437
59,-0.945641808683314,-0.3799416922838478,0.07586989042636763,0.14762318457927148,0.044453840825213024
60,-0.953240642528991,-0.2648783559315192,0.07882235411795306,-0.002190954626513586,0.011035044073153082
61,-0.9585382096476214,-0.22539256813315453,0.07877853502542279,-0.0380859554831272,0.008558975527345355
62,-0.9630460610102844,-0.18976780279577848,0.07801681591576023,-0.06822043179055477,0.007899263995889283
63,-0.9668414170662,-0.15093938401312298,0.07665240727994914,-0.1033722165055697,0.0104736778664586
64,-0.9698602047464624,-0.217664352745414,0.07458496294983774,0.01893508972722703,0.013040115978343193
65,-0.9742134918013706,-0.27738522505801433,0.07496366474438228,0.130175001178651,0.02396563911694936
66,-0.9797611963025309,-0.19236703125932408,0.07756716476795529,0.02502454715896618,0.007520497541357661
67,-0.9836085369277173,-0.1551241356802828,0.07806765571113461,-0.007889936700744705,0.007521421370346447
68,-0.986711019641323,-0.2034127916504321,0.07790985697711972,0.08725102006450394,0.007961694229864784
69,-0.9907792754743316,-0.24345013704660054,0.0796548773784098,0.17000719441003587,0.0295101165903386
70,-0.9956482782152637,-0.122518067628675,0.08305502126661052,0.012578039535572322,0.014060495317584985
71,-0.9980986395678372,-0.011273097514319957,0.08330658205732197,-0.12932409654361654,0.000299171671466126
72,-0.9983241015181236,0.004568128783799363,0.08072010012644965,-0.12853971446960974,0.00013555620079961665
73,-0.9982327389424476,0.10864840996690173,0.07814930583705745,-0.2604458464939648,0.001191412584809707
74,-0.9960597707431096,0.11953486680811345,0.07294038890717816,-0.2537731756500003,0.003178035576578192
75,-0.9936690734069473,0.14718735323807633,0.06786492539417815,-0.27371615033429153,0.0035422910823991335
76,-0.9907253263421858,0.12058846281607681,0.062390602387492326,-0.2139726822339276,0.008203132911438218
77,-0.9883135570858642,0.19185610478526963,0.05811114874281378,-0.3023352117982687,0.006925278382777406
78,-0.9844764349901588,0.15311084633525557,0.052064444506848405,-0.22724036202585995,0.011731745371735663
79,-0.9814142180634536,0.07222980630872215,0.047519637266331204,-0.09078316622612029,0.003631598981734214
80,-0.9799696219372792,0.12356207070108635,0.0457039739418088,-0.153729127507578,0.00026128106879983517
81,-0.9774983805232574,0.12509487102526867,0.04262939139165724,-0.142593636213989,0.013791672615718646
82,-0.9749964831027521,0.011067250305821175,0.03977751866737746,0.04082165003329144,0.00046783525651936976
83,-0.9747751380966357,0.04581690796626125,0.040593951668043284,0.0004299018851354544,0.007073733352363391
84,-0.9738587999373105,0.19577882341378464,0.04060254970574599,-0.21239631427357272,0.0027754610869640587
85,-0.9699432234690348,0.20974486001945422,0.03635462342027454,-0.221394233574888,0.005558736606151986
86,-0.9657483262686457,0.18207011113318122,0.03192673874877678,-0.16922363458314077,0.009141972809082764
87,-0.9621069240459821,0.1304708606651595,0.028542266057113963,-0.08247933586765965,0.005829819419075979
88,-0.9594975068326789,0.08518234893911643,0.02689267933976077,-0.006183950580658487,0.004653263738082413
89,-0.9577938598538965,0.1382651529743337,0.0267690003281476,-0.07787387086227635,0.008374404378297952
90,-0.9550285567944099,0.1985208637851511,0.025211522910902073,-0.16035590930579535,0.016915394948579403
91,-0.9510581395187069,0.11186760540957144,0.022004404724786167,-0.02300592598294407,0.004997675058566606
92,-0.9488207874105155,0.06755725958671413,0.021544286205127286,0.04991227523992539,0.0030028078972358604
93,-0.9474696422187812,0.10920261866333539,0.022542531709925793,-0.006207736310095788,0.007270018859319668
94,-0.9452855898455145,0.1739951657491087,0.022418376983723877,-0.09674492094496995,0.005187039533886985
95,-0.9418056865305323,0.1438368339622067,0.020483478564824478,-0.0449283398426024,0.005678027569354162
96,-0.9389289498512882,0.10447717683463109,0.01958491176797243,0.020120482183459826,0.007611754963393442
97,-0.9368394063145955,0.174656429670553,0.019987321411641626,-0.07937061281754337,0.004182345151310471
98,-0.9333462777211844,0.1505159508161231,0.01839990915529076,-0.03729124601179312,0.008809626301063037
99,-0.930335958704862,0.20800298140130663,0.017654084235054896,-0.11809792728307249,0.0006863189523634293
100,-0.9261758990768358,0.20444581761675099,0.015292125689393445,-0.10757298190974364,0.03343912102854518
101,-0.9220869827245008,0.04074944127041227,0.013140666051198572,0.1424385827088247,0.0013734661451201054
102,-0.9212719938990926,0.012186464239517282,0.015989437705375066,0.1891425938137706,0.0017610354463551993
103,-0.9210282646143023,0.09462602373319387,0.01977228958165048,0.0701997561219343,0.008394837305921695
104,-0.9191357441396384,0.17806952704360776,0.021176284704089166,-0.04912835899146001,0.011754885227834421
105,-0.9155743535987663,0.24298439860306342,0.020193717524259965,-0.14025347216931017,0.018518764850199116
106,-0.910714665626705,0.3190509603482897,0.017388648080873762,-0.24839350194643442,0.029103112053577414
107,-0.9043336464197392,0.22654734157770456,0.012420778041945073,-0.10454704574881282,0.009593467413487239
108,-0.8998026995881852,0.268567578770096,0.010329837126968815,-0.1639209247228685,0.0028847447313697394
109,-0.8944313480127832,0.27919788842629767,0.0070514186325114445,-0.17682862037474803,0.024970198127311577
110,-0.8888473902442573,0.3689371084892963,0.003514846225016484,-0.30936100404111144,0.023621913600087252
111,-0.8814686480744713,0.30394661195901573,-0.0026723738558057453,-0.21084249875910124,0.006979162583695656
112,-0.875389715835291,0.28085373573195327,-0.006889223830987771,-0.1769889850866296,0.001919891021220492
113,-0.869772641120652,0.287818142835042,-0.010429003532720364,-0.18946076362154218,0.033792116627985626
114,-0.8640162782639511,0.16989127340323684,-0.014218218805151207,-0.015646150503465406,0.0064386720733222306
115,-0.8606184527958863,0.1329658662800175,-0.014531141815220515,0.03555634621956591,0.007212656544714225
116,-0.857959135470286,0.18545932425440817,-0.013820014890829197,-0.04744753308040994,0.011628789208048697
117,-0.8542499489851979,0.12376534518394705,-0.014768965552437396,0.0410216432935587,0.0048166252431080395
118,-0.851774642081519,0.0865729704420812,-0.013948532686566222,0.09246220312748674,0.007312524113709745
119,-0.8500431826726773,0.008182575733168121,-0.012099288624016487,0.2059356209253882,0.00014617825231489305
120,-0.849879531158014,0.00022624049006506226,-0.007980576205508724,0.2143121461732258,0.001456442479230897
121,-0.8498750063482127,0.14289451352558025,-0.0036943332820442085,-0.0020297130514462802,0.00680078205577977
122,-0.847017116077701,0.09648532258429804,-0.003734927543073134,0.0664974667988018,0.008688341542150304
123,-0.845087409626015,0.18172226128178104,-0.0024049782070970985,-0.062455115621918675,0.012807902439396848
124,-0.8414529644003794,0.11190392893441649,-0.003654080519535472,0.04156501712024141,0.012282434655104058
125,-0.8392148858216911,0.00665260750675932,-0.002822780177130644,0.19836664797011924,0.0017785027459063171
126,-0.839081833671556,0.11742719670308711,0.0011445527822717414,0.03137552990147721,0.0016526397316997759
127,-0.8367332897374943,0.1038450632483981,0.0017720633803012856,0.052085215183574146,0.005972694468312683
128,-0.8346563884725263,0.15868150098721417,0.0028137676839727686,-0.029648325915151888,0.012886818782949078
129,-0.8314827584527821,0.2385508354997699,0.002220801165669731,-0.1486246068153756,0.022233022042251766
130,-0.8267117417427867,0.1449418281347255,-0.0007516909706377808,-0.0075585270184083675,0.00937961560309779
131,-0.8238129051800922,0.08166800022363341,-0.0009028615110059482,0.08713119090952524,0.000719010462188291
132,-0.8221795451756195,0.07348888562800783,0.0008397623071845567,0.09913441655433242,0.007697504166196534
133,-0.8207097674630593,0.1697620081996119,0.002822450638271205,-0.045028326294874854,0.00493451541952369
134,-0.8173145272990671,0.14101718201295832,0.001921884112373708,-0.001081459369729136,0.014944290192399469
135,-0.8144941836588079,0.03756338867392214,0.0019002549249791253,0.15466397762942402,0.00207578561100192
136,-0.8137429158853294,0.08294986193520407,0.004993534477567606,0.08714306526603524,0.002144306337230374
137,-0.8120839186466253,0.058807614545266104,0.006736395782888311,0.12482407788981928,0.00414093960228209
138,-0.81090776635572,-0.003941634343228084,0.009232877340684696,0.2209263009870277,0.0005546027187354141
139,-0.8109865990425846,0.08462963967467883,0.013651403360425252,0.09078948005373991,0.0024162192561101737
140,-0.8092940062490911,0.11099281889365444,0.015467192961500049,0.055261783894581425,0.009130348686883064
141,-0.807074149871218,0.18924823083973402,0.01657242863939168,-0.05756011986547115,0.020818382274860138
142,-0.8032891852544233,0.2978354447073163,0.015421226242082255,-0.21554650294787528,0.012062817551178108
143,-0.7973324763602769,0.2567580243945994,0.01111029618312475,-0.14940403811421815,0.0010180300097853332
144,-0.792197315872385,0.2526256582873896,0.008122215420840387,-0.13993951164215696,0.014470456882874565
145,-0.7871448027066371,0.19518305906236744,0.005323425187997248,-0.05139054984336126,0.010799330119266443
146,-0.7832411415253898,0.24974020371172162,0.004295614191130022,-0.13166002764168988,0.0074583447621911336
147,-0.7782463374511553,0.21982737216911322,0.0016624136382962242,-0.08552828760931408,0.02563841301893643
148,-0.7738497900077731,0.3356371622203002,-4.8152113890057415e-05,-0.2587539832609992,0.05576609901731474
149,-0.7671370467633671,0.16765379436549188,-0.005223231779110041,-0.006793088492382859,0.013065811112454062
150,-0.7637839708760573,0.09155608875604504,-0.005359093548957698,0.1058162896830315,0.0007590101368031882
151,-0.7619528491009364,0.09931710138996565,-0.0032427677552970685,0.0925993719415957,0.00559201102284395
152,-0.7599665070731371,0.04666562757686256,-0.0013907803164651543,0.17062279536831326,0.0014532674954883722
153,-0.7590331945215998,0.07273827774281136,0.002021675590901111,0.1311049686618169,0.014070122461611658
154,-0.7575784289667435,0.24713587375112825,0.0046437749641374485,-0.12989651853724546,0.010045262442542089
155,-0.7526357114917209,0.28769522136518455,0.0020458445933925393,-0.18936961904099633,0.038605965961499004
156,-0.7468818070644172,0.15271063428927104,-0.0017415477874273876,0.013708315732422705,0.021509545267778193
157,-0.7438275943786318,0.28959340642084064,-0.0014673814727789334,-0.192127545882766,0.027896339582158456
158,-0.738035726250215,0.19271238584506417,-0.005309932390434254,-0.047237581471020446,0.010684232227634401
159,-0.7341814785333137,0.24748694908789576,-0.006254684019854663,-0.13095938083242387,0.023199809960469865
160,-0.7292317395515558,0.15386776415276163,-0.00887387163650314,0.007627784605009874,0.00969432188117498
161,-0.7261543842685007,0.21532403050250717,-0.008721315944402943,-0.08716186940672958,0.009211639768222195
162,-0.7218479036584505,0.1729300266836717,-0.010464553332537535,-0.026137316455455667,0.006111234544218482
163,-0.7183893031247771,0.13836445947379739,-0.01098729966164665,0.02263167298080209,0.011786098801996558
164,-0.7156220139353011,0.056032062795359355,-0.010534666202030607,0.1428926125441489,0.0023916377244311516
165,-0.714501372679394,0.01886641093233108,-0.007676813951147629,0.19554086233038376,0.0007353207374168357
166,-0.7141240444607473,0.04482368324613419,-0.003765996704539954,0.15434914003513006,0.010544074332159122
167,-0.7132275707958246,0.24331479328819097,-0.0006790139038373526,-0.14449261408485192,0.015598390877114121
168,-0.7083612749300607,0.1790451625680285,-0.003568866185534391,-0.048287820301106524,0.002628301155113976
169,-0.7047803716787001,0.193595572109646,-0.004534622591556522,-0.07116254005058098,0.016769146152620255
170,-0.7009084602365072,0.10771797175498501,-0.005957873392568142,0.05631936159766812,0.012274868368857538
171,-0.6987541008014075,0.21639677235617094,-0.00483148616061478,-0.10844755045963106,0.004115650709006613
172,-0.6944261653542841,0.23545362151775134,-0.007000437169807401,-0.13845294197081154,0.009924636386301746
173,-0.6897170929239291,0.2778060864724955,-0.009769496009223631,-0.20403819447959737,0.020199621193397684
174,-0.6841609711944793,0.2045586725028249,-0.013850259898815578,-0.0970445028387939,0.017441747948800303
175,-0.6800697977444228,0.11973957477437731,-0.015791149955591458,0.026100094608613927,0.009930274136266659
176,-0.6776750062489353,0.039851613589799495,-0.01526914806341918,0.14127469088181438,0.0012668737826501669
177,-0.6768779739771393,0.06678053968026093,-0.012443654245782892,0.09639705535609369,0.009794846386440573
178,-0.6755423631835341,0.20124188229524095,-0.010515713138661018,-0.10893768324945527,0.015960233311511716
179,-0.6715175255376293,0.1220671089996436,-0.012694466803650124,0.006726347696979371,0.008151149637401224
180,-0.6690761833576364,0.05726537633109283,-0.012559939849710535,0.10018904172903313,0.0028527617850001657
181,-0.6679308758310145,0.01242449564547974,-0.010556159015129872,0.16375253229014453,0.002436656389911353
182,-0.6676823859181049,0.13222865545794235,-0.007281108369326982,-0.019047148076475173,0.010820010279284576
183,-0.665037812808946,0.21269112160153963,-0.007662051330856485,-0.14187827499199446,0.022178235967174414
184,-0.6607839903769153,0.10788928268449294,-0.010499616830696374,0.013067247902239038,0.001432643411864644
185,-0.6586262047232254,0.09515592328461235,-0.010238271872651594,0.029079403567797812,0.005661449138961086
186,-0.6567230862575332,0.1525524993234484,-0.009656683801295637,-0.060020947546990416,0.0045760286208327864
187,-0.6536720362710642,0.18248841090752194,-0.010857102752235444,-0.10776174217518696,0.012207389769507228
188,-0.6500222680529137,0.11558214228258334,-0.013012337595739184,-0.010600179695661557,0.002001945804841824
189,-0.6477106252072621,0.09880011842011356,-0.013224341189652416,0.0107452056729343,0.012040152995771415
