,X,v,theta,theta_dot,energy
0,0.0,0.0,-0.6981317007977318,0.0,0.0
1,0.0,-0.5613336084202939,-0.6981317007977318,0.4560301799515931,0.32723640242176993
2,-0.011226672168405878,-1.1227938057342868,-0.6890110971986999,0.9122058189810545,0.5413688711939119
3,-0.03368254828309161,-1.5868571528769493,-0.6707669808190788,1.2625866304655071,0.5005814645031824
4,-0.0654196913406306,-1.889120893422975,-0.6455152482097687,1.4350053114339265,0.8308520410739025
5,-0.10320210920909009,-2.3135819169864575,-0.6168151419810901,1.7667147082943515,0.9964500454704096
6,-0.14947374754881926,-2.7309485553451625,-0.581480847815203,2.1073378114857126,1.1616175563488174
7,-0.2040927186557225,-3.145283510541901,-0.5393340915854887,2.4652134086656385,1.521572634991
8,-0.2669983888665605,-3.619915973935467,-0.49002982341217594,2.9251135694560673,0.8171615581072146
9,-0.33939670834526986,-3.8420149933531724,-0.4315275520230546,3.080685039979891,0.5423662072152182
10,-0.41623700821233334,-3.9811637375306805,-0.36991385122345677,3.1473059798061387,0.20121019320233946
11,-0.49586028296294693,-4.0303900788484235,-0.306967731627334,3.109859553196511,0.7066354371718703
12,-0.5764680845399154,-3.853269961504815,-0.24477054056340375,2.7677609717216924,0.8309469233458957
13,-0.6535334837700116,-3.6353304079472313,-0.18941532112896992,2.3793497309854987,0.8919755396359906
14,-0.7262400919289562,-3.3877462946338666,-0.14182832650925994,1.959260110116739,0.3964219089129085
15,-0.7939950178216335,-3.269221435272191,-0.10264312430692515,1.7417000700836078,0.7356477870602064
16,-0.8593794465270773,-3.0432748722088085,-0.067809122905253,1.374439904903748,0.07232363460320453
17,-0.9202449439712534,-3.0187678440837598,-0.04032032480717804,1.3178432363833619,0.449388396396271
18,-0.9806203008529286,-2.870103149930481,-0.013963460079510798,1.08317647312123,0.139434754674178
19,-1.0380223638515382,-2.8216954810217203,0.007700069382913805,1.0064669246150957,0.07439401983954382
20,-1.0944562734719727,-2.795652622736429,0.02782940787521572,0.9696675932910291,0.08643222527323258
21,-1.1503693259267014,-2.826669640209675,0.047222759741036305,1.0243558940623294,0.5500054572988323
22,-1.206902718730895,-2.6343235736760087,0.0677098776222829,0.7500367636329235,0.38128133306125905
23,-1.2595891902044152,-2.492250232380218,0.08271061289494136,0.5573065767965513,0.0403383432176184
24,-1.3094341948520196,-2.4774611193228147,0.09385674443087239,0.5594879478555447,0.08473128298474936
25,-1.3589834172384758,-2.445080441562294,0.10504650338798328,0.5386840952830317,0.42895378080894403
26,-1.4078850260697218,-2.2738067946933684,0.11582018529364392,0.3140167000041011,0.4973499894117235
27,-1.453361161963589,-2.060916261991811,0.12210051929372594,0.030795400046573385,0.2146334862556499
28,-1.4945794872034253,-1.961085144942409,0.1227164272946574,-0.08202798725871012,0.05409261462809062
29,-1.5338011901022734,-1.9359946093389127,0.1210758675494832,-0.08339261678210291,0.041819086207045206
30,-1.5725210822890516,-1.9587221091980063,0.11940801521384115,-0.014041541029195234,0.0636953455461072
31,-1.6116955244730118,-1.9287340551669336,0.11912718439325724,-0.023680728637671816,0.1869228991596521
32,-1.6502702055763505,-1.8360234734099894,0.1186535698205038,-0.12682039274189322,0.021965992160944595
33,-1.6869906750445502,-1.8493295231355642,0.11611716196566595,-0.07219929861196939,0.014752196209109605
34,-1.7239772655072616,-1.84321650487355,0.11467317599342657,-0.047245296735493894,0.12000056076011593
35,-1.7608415956047325,-1.781463064375455,0.11372827005871669,-0.10562701119089768,0.1407718100326548
36,-1.7964708568922416,-1.7062625900933874,0.11161572983489873,-0.1843349393944651,0.12568709772525263
37,-1.8305961086941094,-1.7792965761896362,0.10792903104700943,-0.04271871736245142,0.023210844282291244
38,-1.8661820402179021,-1.768128742739124,0.1070746566997604,-0.027703427645569854,0.3209141517720755
39,-1.9015446150726847,-1.5928518345740432,0.106520588146849,-0.25769323864379334,0.14568317269458003
40,-1.9334016517641655,-1.6828685878612477,0.10136672337397314,-0.092175562494233,0.07146992205276159
41,-1.9670590235213905,-1.6430105314485344,0.09952321212408848,-0.1219049413146483,0.038183136617548255
42,-1.999919234150361,-1.6670067338815426,0.09708511329779551,-0.05687720419994077,0.13775849995531939
43,-2.033259368827992,-1.5879459795557918,0.0959475692137967,-0.14641167740894734,0.016164277587031643
44,-2.0650182884191075,-1.5794274740995835,0.09301933566561775,-0.13096534089364753,0.098282101087474
45,-2.096606837901099,-1.5203079037068263,0.0904000288477448,-0.19195305601888665,0.011557860217395587
46,-2.1270129959752357,-1.5142229693222178,0.08656096772736707,-0.17450176383551147,0.07195115435853658
47,-2.15729745536168,-1.5615469694424247,0.08307093245065685,-0.07836438383950961,0.18434969460339476
48,-2.1885283947505285,-1.447874464389892,0.08150364477386665,-0.22389038359277172,0.016464042511994372
49,-2.2174858840383265,-1.4380223283035702,0.07702583710201122,-0.21468397924558622,0.06751859399063809
50,-2.246246330604398,-1.3936390736235351,0.0727321575170995,-0.25843825507576135,0.3316902405766183
51,-2.2741191120768685,-1.6248462917689728,0.06756339241558426,0.1088200740907816,0.02086455306079395
52,-2.306616037912248,-1.613249481879942,0.0697397938973999,0.11131307562318106,0.09553080084727773
53,-2.338881027549847,-1.5563124133340782,0.07196605540986352,0.04660196282198359,0.15974632982273063
54,-2.3700072758165285,-1.4571015881855804,0.07289809466630319,-0.08068931140613828,0.098297401726695
55,-2.39914930758024,-1.5237677174893767,0.07128430843818043,0.04045735848526205,0.05318383072174555
56,-2.4296246619300272,-1.490706140140046,0.07209345560788567,0.011930781770016795,0.26162381697622394
57,-2.459438784732828,-1.3205162326976894,0.07233207124328601,-0.22151382919039417,0.08653276067027976
58,-2.485849109386782,-1.3849704884834726,0.06790179465947813,-0.10383815988563587,0.008155357488612056
59,-2.5135485191564513,-1.380216815929663,0.06582503146176541,-0.09100444622319048,0.016362014195549484
60,-2.5411528554750444,-1.3926846855298196,0.0640049425373016,-0.053004557330168706,0.028185438599563628
61,-2.569006549185641,-1.4133043171735422,0.06294485139069823,-0.003333833826868575,0.032681297003774576
62,-2.597272635529112,-1.3916533038571497,0.06287817471416086,-0.01725246959836095,0.06564409359733542
63,-2.625105701606255,-1.4385326400629614,0.06253312532219364,0.07140157602740738,0.05647291360873967
64,-2.653876354407514,-1.4010512798472128,0.06396115684274178,0.03366218425459814,0.1065561204996772
65,-2.6818973800044583,-1.327707558603769,0.06463440052783374,-0.0573366747680002,0.041691770425777444
66,-2.7084515311765336,-1.2980652337215661,0.06348766703247374,-0.08271803327664004,0.06305926496287267
67,-2.7344128358509647,-1.3462166347598723,0.06183330636694094,0.008016392458088106,0.18195733700448527
68,-2.761337168546162,-1.2152367487724265,0.061993634216102704,-0.16991055879623074,0.07944340633984355
69,-2.7856419035216105,-1.279480045611624,0.05859542304017809,-0.05551627340548483,0.01044794766013053
70,-2.811231504433843,-1.2723691197226052,0.05748509757206839,-0.048947158258493245,0.03981066344212904
71,-2.8366788868282953,-1.242726472531588,0.056506154406898525,-0.0764463707622705,0.07391384779539202
72,-2.861533416278927,-1.1856831636981389,0.05497722699165312,-0.145270798049485,0.10485569804733762
73,-2.8852470795528897,-1.27225051635097,0.05207181103066342,0.0005392069906893782,0.17092416021520576
74,-2.910692089879909,-1.4040434521228193,0.052082595170477204,0.21326285141799667,0.13536977723357213
75,-2.9387729589223652,-1.3100897252456354,0.05634785219883714,0.08782872307080922,0.12950183295119608
76,-2.964974753427278,-1.4076059843085,0.058104426660253325,0.25042846002402896,0.10449306517636207
77,-2.993126873113448,-1.335438304839894,0.0631129958607339,0.15943271555274163,0.0769440292727669
78,-3.0198356392102457,-1.2798378305730453,0.06630165017178874,0.09474095686432567,0.06873731498758887
79,-3.0454323958217064,-1.2282275163137462,0.06819646930907525,0.03697398577341049,0.09463323162607547
80,-3.0699969461479815,-1.1539555329426128,0.06893594902454346,-0.0541407993922675,0.004253246197428691
81,-3.093076056806834,-1.1513534873313251,0.06785313303669811,-0.0377834767970856,0.07611228857198937
82,-3.1161031265534604,-1.2167001328311395,0.0670974635007564,0.079944450791944,0.20269772524785956
83,-3.1404371292100834,-1.0546936780292429,0.06869635251659528,-0.1428065575501012,0.04088069187167088
84,-3.1615310027706682,-1.0932456781291666,0.06584022136559325,-0.06493410834825462,0.07666637280483218
85,-3.1833959163332515,-1.1623980830229985,0.06454153919862816,0.05791279469886214,0.05993563352970691
86,-3.2066438779937116,-1.1129176032063035,0.0656997950926054,0.002808649993274147,0.04775563674112352
87,-3.228902230057838,-1.0720015227371789,0.06575596809247089,-0.03913121197731739,0.09415202702087139
88,-3.2503422605125816,-1.1584589042528044,0.06497334385292454,0.10959291592701759,0.06727300099618258
89,-3.273511438597638,-1.1025057091685773,0.06716520217146489,0.04492894313567862,0.10261089489820768
90,-3.295561552781009,-1.0125268579722837,0.06806378103417847,-0.07000328992854785,0.10519969092333725
91,-3.315812089940455,-0.9124862745043503,0.06666371523560752,-0.1997214027804806,0.08838035273651416
92,-3.334061815430542,-1.0069715793056113,0.06266928717999791,-0.03872363318371552,0.03027427580395274
93,-3.354201247016654,-0.978595738654089,0.0618948145163236,-0.06279112577688194,0.02797846695193587
94,-3.3737731617897357,-0.9516763011435194,0.060638992000785964,-0.08490750214559928,0.031265552274324496
95,-3.392806687812606,-0.9844572011355717,0.058940841957873975,-0.018009588245445504,0.014795427773865532
96,-3.412495831835318,-0.9999468887904985,0.058580650192965066,0.022503172221362777,0.04580781947441987
97,-3.432494769611128,-1.0455122570059516,0.05903071363739232,0.10794684566482557,0.11313384866859004
98,-3.453405014751247,-0.9403163472848894,0.061189650550688826,-0.03222722023753924,0.0519188937719788
99,-3.4722113416969447,-0.9949606541987498,0.06054510614593804,0.06756437292285002,0.011032509612113927
100,-3.4921105547809197,-0.9849778724880546,0.06189639360439504,0.07040702556113537,0.10938472077879972
101,-3.511810112230681,-0.8771963297164223,0.06330453411561775,-0.07276976860051013,0.02660488518438341
102,-3.529354038825009,-0.9075713342197599,0.06184913874360754,-0.008699421735788068,0.006928147660360113
103,-3.5475054655094045,-0.9010136129978327,0.06167515030889178,-0.0003451395732431313,0.03159290292576385
104,-3.565525737769361,-0.867697216999354,0.061668247517426916,-0.03210371550455722,0.04663203015931719
105,-3.5828796821093483,-0.8162499936123804,0.06102617320733577,-0.0910088824469354,0.026317962742994583
106,-3.599204681981596,-0.7858330204634165,0.05920599555839706,-0.1186188489016849,0.023576235847328143
107,-3.6149213423908644,-0.8157423781119663,0.056833618580363364,-0.05643702640769345,0.06672383607181478
108,-3.631236189953104,-0.7370236543945986,0.05570487805220949,-0.15762437355594885,0.009108061491598797
109,-3.645976663040996,-0.7258814924966696,0.05255239058109051,-0.15794292662130271,0.09413103403701123
110,-3.660494292890929,-0.8518849894715311,0.04939353204866446,0.04624467804020116,0.12893745733305598
111,-3.67753199268036,-0.7045897016900878,0.05031842560946848,-0.15991299454042182,0.03093463830605604
112,-3.6916237867141617,-0.7476976603500755,0.04712016571866005,-0.08054552433010319,0.014424227660459959
113,-3.7065777399211632,-0.767098372960979,0.04550925523205798,-0.037628553291082965,0.03725359750895499
114,-3.721919707380383,-0.8150173314446038,0.04475668416623632,0.04755056691703274,0.08253922469575521
115,-3.738220054009275,-0.7166073223403855,0.04570769550457698,-0.08676255061722907,0.10020238657784615
116,-3.7525522004560825,-0.8529132666082584,0.04397244449223239,0.1309162097018572,0.1515055534083563
117,-3.7696104657882477,-0.6790500783925738,0.04659076868626954,-0.11670274709130543,0.0692305620739135
118,-3.783191467356099,-0.7783961394940428,0.04425671374444343,0.04584736690275662,0.05221887999799475
119,-3.79875939014598,-0.7134147155336032,0.04517366108249856,-0.03852210063587071,0.027456200993400796
120,-3.813027684456652,-0.7515110403941393,0.04440321906978115,0.03184063014444671,0.03192601583963636
121,-3.828057905264535,-0.7106266919882296,0.04504003167267008,-0.016375188299117334,0.05356901240919517
122,-3.8422704391042997,-0.637815246222024,0.044712527906687734,-0.11224430374327074,0.053704592405375506
123,-3.85502674402874,-0.7199389787614849,0.04246764183182232,0.023959282174562335,0.0070564727627574104
124,-3.8694255236039696,-0.7301228283528122,0.042946827475313566,0.05170301780402736,0.06591546365748224
125,-3.884027980171026,-0.6423875425658014,0.043980887831394117,-0.06715607710813792,0.014458880367292818
126,-3.896875731022342,-0.6648694062039499,0.042637766289231355,-0.02053967886096851,0.019045532960495427
127,-3.910173119146421,-0.6933840450524769,0.042226972712011986,0.034725111458612554,0.0392917422219291
128,-3.9240408000474707,-0.6385854698080453,0.042921474941184236,-0.034988437264591554,0.02164663076458813
129,-3.9368125094436315,-0.6721846158691364,0.042221706195892404,0.027978904808586794,0.13334935175933477
130,-3.950256201761014,-0.47890458187634666,0.04278128429206414,-0.249273274476204,0.052619849176525096
131,-3.959834293398541,-0.5842206387834213,0.03779581880254006,-0.07886987094179487,0.045217131986989546
132,-3.9715187061742094,-0.6598034386441411,0.03621842138370416,0.04553268490832922,0.030365673978692918
133,-3.984714774947092,-0.6152856104855555,0.037129075081870744,-0.010554376087753406,0.004482435085574728
134,-3.9970204871568034,-0.6087163554053965,0.036917987560115675,-0.009488027179782452,0.07140814816893758
135,-4.009194814264911,-0.49488945520086075,0.036728227016520024,-0.16926061348054697,0.020551494236306568
136,-4.019092603368929,-0.5353054538440887,0.03334301474690909,-0.09788182947285717,0.0546392726367909
137,-4.02979871244581,-0.6345361449960442,0.031385378157451946,0.0606825046760964,0.01859197364256106
138,-4.042489435345731,-0.6636939520170239,0.032599028250973876,0.11362346210127267,0.034150476649354236
139,-4.055763314386072,-0.6135709878242337,0.03487149749299933,0.04806137829869492,0.040977958952176444
140,-4.0680347341425565,-0.548686626368967,0.03583272505897323,-0.03895585173502458,0.046486414131194906
141,-4.0790084666699356,-0.6315831701533701,0.035053608024272744,0.09584171098243355,0.001057885524754932
142,-4.091640130073003,-0.6304398034853854,0.03697044224392142,0.10443136490661434,0.07809827810126253
143,-4.104248926142711,-0.5092074232938879,0.0390590695420537,-0.0664261088502851,0.018121274481235017
144,-4.114433074608589,-0.5442776657967434,0.037730547365048,-0.0023804208432989804,0.0339159781280752
145,-4.125318627924523,-0.605593701441539,0.037682938948182025,0.10061832270152679,0.09672199882836913
146,-4.137430501953354,-0.4491457831217127,0.03969530540221256,-0.12281079475370013,0.061381135175858074
147,-4.146413417615788,-0.5813918073790754,0.037239089507138556,0.08706933054428864,0.0767737423490113
148,-4.158041253763369,-0.4522249776859526,0.038980476118024326,-0.09560082589744412,0.024566935565031214
149,-4.167085753317088,-0.5052727337759055,0.037068459600075446,-0.004632279831367339,0.018628283536393304
150,-4.177191207992606,-0.4698538293175235,0.0369758140034481,-0.04682850814491513,0.007831141058358047
151,-4.186588284578956,-0.4541977354594348,0.036039243840549795,-0.059428184521918434,0.00659127528871219
152,-4.195672239288145,-0.44064100199962325,0.034850680150111425,-0.06915683604185914,0.016069622772662794
153,-4.204485059328137,-0.4058159545938256,0.033467543429274244,-0.11111866128100573,0.0251873510624401
154,-4.212601378420014,-0.4660983775968742,0.031245170203654127,-0.010908041695287377,0.0422655633271437
155,-4.221923345971951,-0.5549136740949705,0.03102700936974838,0.13143446362690042,0.06734785569601634
156,-4.233021619453851,-0.43567205158985445,0.03365569864228639,-0.038221406565438876,0.005074712364943856
157,-4.241735060485648,-0.4474721345846827,0.03289127051097761,-0.010638398118093837,0.03250884913145563
158,-4.250684503177341,-0.37714749101733674,0.032678502548615734,-0.10640001877181626,0.008311418027957271
159,-4.258227452997688,-0.3563890790420244,0.03055050217317941,-0.12791524262992066,0.008505041781278538
160,-4.265355234578529,-0.37973370060612655,0.027992197320580996,-0.08393419971724536,0.009009870027013391
161,-4.272949908590651,-0.4030513475826961,0.026313513326236087,-0.040742800188294064,0.0611438033587061
162,-4.281010935542305,-0.5507465223659226,0.025498657322470204,0.1884585483919176,0.08608780633382782
163,-4.292025865989624,-0.3962113445729914,0.029267828290308558,-0.03577307252198797,0.047390048757800465
164,-4.299950092881083,-0.5128374973303306,0.0285523668398688,0.1476947480770781,0.013854961042275408
165,-4.310206842827689,-0.4865409194109102,0.03150626180141036,0.11665921390214642,0.070297899794627
166,-4.319937661215907,-0.3444889301307613,0.03383944607945329,-0.08705171482375712,0.0018019566918724681
167,-4.326827439818523,-0.3399286883341319,0.03209841178297815,-0.08394126290033259,0.02397938520144688
168,-4.333626013585206,-0.40844163696655994,0.030419586524971495,0.028210535168735035,0.013167046198395068
169,-4.341794846324537,-0.37732970465976656,0.030983797228346197,-0.009493793646624234,0.009356485762473027
170,-4.349341440417732,-0.4019362054621013,0.03079392135541371,0.036506021356915705,0.012979432743877398
171,-4.357380164526974,-0.3707444854642705,0.031524041782552026,-0.0012073947602892002,0.012035955496514025
172,-4.36479505423626,-0.3395307650268294,0.03149989388734624,-0.03873817969786506,0.037417386485084095
173,-4.371585669536796,-0.44693528369640895,0.030725130293388938,0.13154811371006583,0.08956016519260077
174,-4.380524375210724,-0.2492393052282843,0.033356092567590256,-0.1558241241629819,0.020736588342495064
175,-4.38550916131529,-0.32863846609925323,0.03023961008433062,-0.026986760283630312,0.020239454167828574
176,-4.392081930637275,-0.26921548515844973,0.029699874878658012,-0.10719139053141288,0.02358360530773738
177,-4.397466240340444,-0.18570027550448143,0.027556047068029756,-0.2236784790090123,0.016949317321449307
178,-4.401180245850534,-0.27051464245727563,0.023082477487849508,-0.08840477487122178,0.01191170119255485
179,-4.406590538699679,-0.3131745589665838,0.021314381990425072,-0.017646300499807213,0.020958354961597953
180,-4.412854029879011,-0.248359021948383,0.02096145598042893,-0.10858156860945394,0.019013831519904018
181,-4.417821210317978,-0.32189243553347135,0.01878982460823985,0.007856537449828643,0.030391944210100854
182,-4.424259059028648,-0.22994831223609957,0.018946955357236422,-0.12451141866016374,0.0005605786047527206
183,-4.42885802527337,-0.22789847828363022,0.016456726984033148,-0.12201554611031347,0.03134492076088761
184,-4.433415994839042,-0.35912838672713154,0.014016416061826879,0.07964072136286039,0.008914313007531158
185,-4.440598562573585,-0.38379215976900616,0.015609230489084087,0.12075343829699144,0.027522672838302103
186,-4.448274405768965,-0.31303871471385725,0.018024299255023916,0.01922512706861934,0.008626983876452573
187,-4.454535180063242,-0.2863358547489491,0.018408801796396302,-0.015523799670130643,0.02552634845784812
188,-4.460261897158221,-0.37335780565773236,0.01809832580299369,0.12039889160797679,0.05255898417129651
189,-4.467729053271375,-0.2342374337702475,0.020506303635153225,-0.08292687324654108,0.004257546590342603
190,-4.4724138019467805,-0.2519828477598167,0.018847766170222404,-0.05028591789203141,0.02445293389852082
191,-4.4774534589019765,-0.34607484339031225,0.017842047812381776,0.09636792266903463,0.010942750359063615
192,-4.484374955769783,-0.3150874422021882,0.019769406265762467,0.05513950280704428,0.003540562490430504
