,X,v,theta,theta_dot,energy
0,0.0,0.0,0.17453292519943295,0.0,0.0
1,0.0,0.2750307512180224,0.17453292519943295,-0.35522605994034273,0.0538524486150266
2,0.005500615024360448,0.4749181314301096,0.16742840400062609,-0.5994494583495089,0.06226379240612801
3,0.01499897765296264,0.6079340707103649,0.1554394148336359,-0.7471890435099516,0.05996306322893902
4,0.027157659067169937,0.7075068551777675,0.14049563396343687,-0.8492321020060426,0.07047195568780694
5,0.04130779617072529,0.6030339038640682,0.12351099192331602,-0.6528968167512464,0.012677070182099206
6,0.053368474248006656,0.5797942254511328,0.11045305558829109,-0.5820828732723904,0.017488499904767255
7,0.06496435875702931,0.6090600762470666,0.09881139812284329,-0.5933069313155117,0.01845000421077807
8,0.07714556028197064,0.5767922453351031,0.08694525949653305,-0.5161379819563622,0.03583077494848765
9,0.08868140518867271,0.512443377480295,0.07662249985740581,-0.3944495706144814,0.05381500603083994
10,0.0989302727382786,0.6174750257938324,0.06873350844511618,-0.5290298093991311,0.03010120870268312
11,0.11127977325415525,0.6659774415906885,0.05815291225713355,-0.5814199018553733,0.028191767973609456
12,0.12459932208596902,0.6221722199095805,0.046524514220026084,-0.4987358205970385,0.08561980588526588
13,0.13704276648416064,0.48220920365848885,0.036549797808085316,-0.27534519766177357,0.012497436873410447
14,0.14668695055733041,0.45573250321341796,0.031042893854849846,-0.22491342324489902,0.023746622039697282
15,0.15580160062159878,0.40329116042741464,0.026544625389951865,-0.13716416275301357,0.011502268515516431
16,0.16386742383014707,0.4311718534150173,0.023801342134891594,-0.1711672657781551,0.013499398689868871
17,0.17249086089844742,0.3997264573545478,0.020377996819328493,-0.11701559759878327,0.022059792646512668
18,0.18048539004553837,0.3448690787327548,0.018037684867352827,-0.028755897819913057,0.004075188090941003
19,0.18738277162019348,0.35618245978519925,0.017462566910954564,-0.040420417009451114,0.002099254793149624
20,0.19450642081589747,0.36171179828123207,0.01665415857076554,-0.04357942644510681,0.036429682802432195
21,0.20174065678152212,0.46027023657896887,0.015782570041863404,-0.18650048588404386,0.013417772635207709
22,0.2109460615131015,0.43107047089816797,0.012052560324182527,-0.13806640930391917,0.008592454922833226
23,0.21956747093106485,0.4506315975621848,0.009291232138104143,-0.16386260123057303,0.0015332689518971318
24,0.22858010288230854,0.4538738665562758,0.006013980113492683,-0.16599421185506708,0.03794315775882351
25,0.23765758021343406,0.37084977157699966,0.002694095876391341,-0.039692221993044924,0.010290549457254352
26,0.24507457564497404,0.3436070335179706,0.0019002514365304426,0.0019638000261315777,0.0017616729866453307
27,0.25194671631533344,0.3385791309231145,0.0019395274370530742,0.010064313887885968,0.015706823688614462
28,0.2587182989337957,0.3837491679477788,0.0021408137148107935,-0.05712039350080807,0.013938684334329399
29,0.2663932822927513,0.3480406232796031,0.0009984058447946322,-0.0029283004885357483,0.04542832304827344
30,0.2733540947583433,0.22063522859712753,0.0009398398350239172,0.18847322755515628,0.023334714512071492
31,0.27776679933028586,0.31994708987935055,0.004709304386127043,0.03978181429418062,0.01160685171177799
32,0.28416574112787285,0.2846859251586647,0.005504940672010655,0.09405750524359542,0.007513917246556413
33,0.28985945963104615,0.3099759519830154,0.007386090776882564,0.05774148418761847,0.02782250993402925
34,0.29605897867070646,0.39670230235807025,0.008540920460634933,-0.07017300197295286,0.025173515579714038
35,0.3039930247178679,0.45899054075856816,0.007137460421175876,-0.1610909516875519,0.04545370118301255
36,0.31317283553303926,0.3607081128809522,0.003915641387424838,-0.011572669434461086,0.005527359014959276
37,0.3203869977906583,0.37562366121493196,0.003684187998735616,-0.03279462479282953,0.009202736333065974
38,0.327899471014957,0.35157329229023015,0.0030282955028790256,0.004363832584723865,0.01311013388799765
39,0.3349309368607616,0.38788971735577776,0.003115572154573503,-0.04922023771489234,0.015485691780659281
40,0.34268873120787713,0.4270201652232863,0.002131167400275656,-0.10699964791153263,0.007363850671865413
41,0.35122913451234283,0.40997166763423143,-8.825557954996507e-06,-0.08080039686064461,0.02991472716862396
42,0.35942856786502747,0.33814019999669487,-0.0016248334951678887,0.026944209877425282,0.004960969839710172
43,0.36619137186496137,0.3524253446707102,-0.001085949297619383,0.005038820314497039,0.028534945905812993
44,0.37323987875837555,0.27349969372347643,-0.0009851728913294422,0.12310795789767692,0.017437641670705516
45,0.37870987263284506,0.21255857569872094,0.0014769862666240963,0.21422994979109972,0.006963449083604043
46,0.3829610441468195,0.2430985160095149,0.0057615852624460905,0.1688543230963027,0.0332342894392518
47,0.3878230144670098,0.372310490673616,0.009138671724372145,-0.0232665252359279,0.03968893264768702
48,0.3952692242804821,0.26788216775307133,0.008673341219653586,0.13605615025612383,0.02419997307548811
49,0.40062686763554356,0.3539035413811899,0.011394464224776062,0.00957887346887476,0.03760834690077039
50,0.40770493846316735,0.45728711803361344,0.011586041694153558,-0.14213652461295492,0.019176965281760647
51,0.41685068082383964,0.4156217740032663,0.00874331120189446,-0.07623648322321147,0.021125156976881998
52,0.42516311630390496,0.365491672158419,0.0072185815374302305,0.0015262961397237151,0.00850157975185049
53,0.43247294974707334,0.38807709093987103,0.007249107460224705,-0.03022870483596632,0.006426471336676906
54,0.44023449156587074,0.37175991367079136,0.006644533363505379,-0.003622363097459981,0.02039914736074482
55,0.44766968983928657,0.42522166719148685,0.006572086101556179,-0.0818597447052665,0.04169267376606832
56,0.4561741231831163,0.3286255130763283,0.0049348912074508484,0.06496353672461469,0.026007260023700518
57,0.46274663344464284,0.2520332100724298,0.006234161941943142,0.1813014444115183,0.014274705113220352
58,0.46778729764609145,0.30545110583384716,0.009860190830173508,0.10300898955900752,0.03202613332158162
59,0.4738963197627684,0.4060562031998428,0.011920370621353659,-0.0449924715440848,0.014971600256078837
60,0.48201744382676526,0.44203846092650556,0.011020521190471963,-0.09545751753323846,0.00989938807196997
61,0.49085821304529537,0.4639455452455745,0.009111370839807193,-0.12507618089378097,0.06144159090872844
62,0.5001371239502068,0.3330102484828543,0.006609847221931574,0.07399731787082009,0.015582502640306186
63,0.506797328919864,0.37811044727997933,0.008089793579347975,0.008291778426057952,0.0008059246918904391
64,0.5143595378654635,0.3800718198370078,0.008255629147869134,0.007728189231275469,0.010198883961752756
65,0.5219609742622037,0.4061087306014932,0.008410192932494643,-0.028898718606771567,0.012883986437185711
66,0.5300831488742336,0.4370400724433432,0.00783221856035921,-0.07282152294374827,0.025745910757578063
67,0.5388239503231005,0.37901654745882263,0.006375788101484245,0.016513743730110164,0.0009220930021668859
68,0.5464042812722769,0.38129393423688884,0.006706062976086448,0.014972201997794254,0.022407302484320067
69,0.5540301599570147,0.32396694782114605,0.0070055070160423335,0.10293231581522974,0.015077840531492248
70,0.5605094989134376,0.36862613411942674,0.009064153332346928,0.038004782385615665,0.03584496065616429
71,0.5678820215958261,0.2740715713965654,0.009824248980059241,0.18249562472690706,0.01912161155384666
72,0.5733634530237575,0.3399980320854139,0.013474161474597382,0.08649898860619745,0.03792828822603718
73,0.5801634136654658,0.44739303236349554,0.015204141246721332,-0.0706176050094387,0.01593872261630088
74,0.5891112743127357,0.41216769027157546,0.013791789146532557,-0.013315853618386837,0.0015948542109489917
75,0.5973546281181672,0.4157504789353052,0.01352547207416482,-0.014634868036646128,0.011015307050653412
76,0.6056696376968733,0.44144638338589354,0.013232774713431898,-0.04919883164180576,0.008243932009229595
77,0.6144985653645912,0.42294479915094485,0.012248798080595782,-0.01755856283550862,0.102945980028043
78,0.6229574613476101,0.6606816945127527,0.011897626823885609,-0.3705360983303983,0.06454279811346783
79,0.6361710952378652,0.562712044916279,0.004486904857277643,-0.22009420501145202,0.017455727375087854
80,0.6474253361361908,0.5318360544854992,8.502075704860251e-05,-0.17246153996659205,0.07880480893068469
81,0.6580620572259008,0.38511118349610596,-0.003364210042283239,0.04765076182458622,0.025611522182236408
82,0.665764280895823,0.44967867786644616,-0.0024111948057915144,-0.050189007541378644,0.010536818540470665
83,0.6747578544531518,0.4267363209038602,-0.003414974956619087,-0.016484462721200334,0.016078859769226576
84,0.683292580871229,0.46360960802643364,-0.003744664211043094,-0.07279807157746765,0.033729688593007935
85,0.6925647730317577,0.39217310526525473,-0.005200625642592447,0.033255002570791545,0.010189523798268853
86,0.7004082351370627,0.41749880325637334,-0.004535525591176616,-0.006262007734944154,0.015140252270868765
87,0.7087582112021902,0.45296762149275466,-0.004660765745875499,-0.060798127820959516,0.003455896006748133
88,0.7178175636320453,0.4605234945736504,-0.00587672830229469,-0.0735020745101491,0.002413901237986501
89,0.7270280335235183,0.4657589002771616,-0.007346769792497672,-0.08308279563451544,0.039883793535838985
90,0.7363432115290616,0.38163837342218854,-0.009008425705187981,0.04093465846903448,0.017266632723359827
91,0.7439759789975053,0.4256930753790783,-0.008189732535807293,-0.027793154483904195,0.014938896983166895
92,0.7524898405050869,0.4601494397344237,-0.008745595625485377,-0.08188372219086418,0.05545008211194173
93,0.7616928292997754,0.5787981706196329,-0.01038327006930266,-0.2624211847239066,0.002496782457732815
94,0.7732687927121681,0.5746493344108804,-0.01563169376378079,-0.25925089242734095,0.0022298383515293985
95,0.7847617794003857,0.5787373285609464,-0.02081671161232761,-0.2699776653004661,0.01400391527745093
96,0.7963365259716046,0.6031519820524656,-0.02621626491833693,-0.3127113822357738,0.022639105384221026
97,0.8083995656126539,0.566024552442442,-0.03247049256305241,-0.26474607380126913,0.03572092731680832
98,0.8197200566615027,0.5035867077908704,-0.03776541403907779,-0.18068332259216285,0.0013321425512611898
99,0.8297917908173201,0.5067498145586595,-0.041379080490921046,-0.1965249923419611,0.051852558470460566
100,0.8399267871084933,0.40573595509951976,-0.045309580337760266,-0.05729588202739458,0.020777702453828064
101,0.8480415062104837,0.35610886509969886,-0.046455497978308155,0.003751895120382029,0.030950142165402917
102,0.8551636835124776,0.4415123425873254,-0.04638046007590051,-0.13786811756497974,0.01109319635246628
103,0.8639939303642241,0.4173143355120515,-0.049137822427200106,-0.11524110705804104,0.03809570511939939
104,0.8723402170744652,0.327841125439156,-0.051442644568360923,0.00436600721996333,0.0238979742226262
105,0.8788970395832483,0.2575171012283871,-0.05135532442396166,0.09459503028603568,0.019814238031624222
106,0.884047381607816,0.3320729428269594,-0.04946342381824095,-0.03218312060316976,0.00024607250693882963
107,0.8906888404643553,0.3335069984341649,-0.05010708623030434,-0.04886789050861455,0.02691676967084163
108,0.8973589804330385,0.25497166469295796,-0.05108444404047663,0.054061936174966255,0.02847881088531682
109,0.9024584137268977,0.14779242294984757,-0.0500032053169773,0.1996087763902334,0.0009804570610870956
110,0.9054142621858947,0.154603421630092,-0.04601102978917263,0.1747102310178069,0.014988170947599232
111,0.9085063306184965,0.24521173158461246,-0.0425168251688165,0.02541913469413748,0.020510619936575627
112,0.9134105652501887,0.16460932699685568,-0.042008442474933745,0.13371729953956196,0.005238851082975238
113,0.9167027517901258,0.13526918788464928,-0.0393340964841425,0.16534183140080605,0.012162329556756396
114,0.9194081355478189,0.21892724081897588,-0.036027259856126384,0.02839057185359689,0.02016803108668676
115,0.9237866803641984,0.13010302440037785,-0.03545944841905445,0.15095071468866525,0.020082941725311637
116,0.926388740852206,0.2736538614412961,-0.032440434125281144,-0.0746630756739359,0.016645165232286346
117,0.931861818081032,0.21403635352040587,-0.033933695638759864,0.005180320175710934,0.006381031241418528
118,0.9361425451514401,0.24357390151657973,-0.03383008923524564,-0.049075086973953144,0.004072518546730426
119,0.9410140231817717,0.26051993258278044,-0.03481159097472471,-0.08442373840653197,0.036744907179182086
120,0.9462244218334274,0.1213705843705929,-0.036500065742855345,0.11394128516473168,0.0011098273685434417
121,0.9486518335208393,0.11333769420417247,-0.03422124003956071,0.1152539581679505,0.01610406529156237
122,0.9509185874049227,-0.01866336322853182,-0.0319161608762017,0.3030805355190348,0.00021452309897146234
123,0.9505453201403521,0.024563734564931196,-0.025854550165821003,0.22889115237286983,0.00595663581969043
124,0.9510365948316507,0.19112983004543346,-0.021276727118363606,-0.02847487962565859,0.008463029059035846
125,0.9548591914325594,0.1479428455341404,-0.02184622471087678,0.030036048844464668,0.012661739695776412
126,0.9578180483432421,0.23098770707047095,-0.021245503733987484,-0.10092379849255151,0.0012308781785585353
127,0.9624378024846516,0.2365960155568598,-0.023263979703838516,-0.11558007093822717,0.017424165456439766
128,0.9671697227957888,0.1634519867104126,-0.02557558112260306,-0.012732709292638145,0.003423270595777947
129,0.9704387625299971,0.14331422926062898,-0.025830235308455823,0.009945647040366854,0.013586114005203936
130,0.9733050471152096,0.0514924266097119,-0.025631322367648486,0.14003916112380302,0.006740911813047135
131,0.9743348956474038,-0.061805375234028584,-0.022830539145172427,0.302395258756055,0.006253796949869493
132,0.9730987881427232,0.06545851101045723,-0.016782633970051326,0.1048375824589039,0.005620890296877003
133,0.9744079583629324,0.143788221782608,-0.014685882320873247,-0.017574300286002903,0.030289731053098155
134,0.9772837227985846,-0.06266319811827295,-0.015037368326593305,0.28775194113401603,0.008247127287752396
135,0.9760304588362191,0.09981636056196616,-0.009282329503912983,0.03963933812500897,0.00046237677808374817
136,0.9780267860474584,0.10438859591255151,-0.008489542741412804,0.030052314875422315,0.003934030138050179
137,0.9801145579657095,0.14080246118594353,-0.007888496443904358,-0.027062410307124626,0.0032445124450594318
138,0.9829306071894284,0.16359459269559304,-0.00842974465004685,-0.06356873774017041,0.01115949662138174
139,0.9862024990433402,0.09596869576729204,-0.009701119404850259,0.035388187946168534,0.003214460124278972
140,0.988121872958686,0.06396875955789938,-0.008993355645926888,0.08053374923247411,0.0009149905712028775
141,0.989401248149844,0.05089823183670814,-0.007382680661277406,0.09749473703892086,0.00032960667273938924
142,0.9904192127865782,0.056815854305043566,-0.0054327859204989885,0.08644805683819068,0.0008644994097585999
143,0.991555529872679,0.07077813680996584,-0.003703824783735175,0.06390771095081876,0.004826729791449753
144,0.9929710926088784,0.1347401305762158,-0.0024256705647188,-0.03312354360779718,0.010411281336597194
145,0.9956658952204027,0.058538342671646565,-0.0030881414368747434,0.08046565553103936,0.0004909149450421147
146,0.9968366620738357,0.06628314080149673,-0.001478828326253956,0.0679406015912322,0.003762831508146817
147,0.9981623248898657,0.11922322773676858,-0.00012001629442931201,-0.011904217348813195,0.007974886818114313
148,1.000546789444601,0.18478138636436114,-0.0003581006414055759,-0.11027673937245913,0.012094496543057696
149,1.0042424171718882,0.2504236477494606,-0.0025636354288547584,-0.20884540672315222,0.025274414750630532
150,1.0092508901268775,0.14811575381632203,-0.006740543563317802,-0.056137778106658265,0.009246298746357363
151,1.012213205203204,0.21018337195075157,-0.007863299125450968,-0.1512187950891119,0.0033009897067462915
152,1.0164168726422191,0.22613611675292816,-0.010887675027233206,-0.17745895862909206,0.03182541929987584
153,1.0209395949772777,0.08391168992959225,-0.014436854199815047,0.03266412389464465,0.003230071818850944
154,1.0226178287758696,0.0472172932133153,-0.013783571721922154,0.08345569541132528,0.00019312817757491694
155,1.023562174640136,0.05110850794196376,-0.012114457813695648,0.07356718599800119,0.0016531494825078646
156,1.0245843447989753,0.021663345254211014,-0.010643114093735624,0.11417012555842501,0.0007901119982233313
157,1.0250176117040595,0.0505219128436639,-0.008359711582567124,0.06775570941668352,0.002055163603389162
158,1.0260280499609327,0.013235667792942267,-0.007004597394233453,0.12122539611967403,0.0002344058163317983
159,1.0262927633167915,0.0011366182262778964,-0.004580089471839972,0.13731419045336538,0.0012697917901067736
160,1.0263154956813172,0.16910627344119092,-0.0018338056627726649,-0.11598419131829621,0.002370383537214607
161,1.029697621150141,0.1550172572063721,-0.004153489489138589,-0.09538984106310441,0.005650221115182264
162,1.0327979662942683,0.1184936149650736,-0.006061286310400677,-0.04182597266427392,0.024909879565437908
163,1.0351678385935699,-0.08985707937013135,-0.006897805763686156,0.2689123206154027,0.005224191982477649
164,1.0333706970061673,-0.024107507519110755,-0.0015195593513781013,0.1682623702764749,0.00031731082468011056
165,1.0328885468557851,-0.005277364604668839,0.0018456880541513968,0.13957043823738569,5.700095775941835e-06
166,1.0327829995636917,-9.051417316112333e-05,0.00463709681889911,0.1323328078219606,0.0006971936202388559
167,1.0327811892802286,0.11465228823141473,0.007283752975338322,-0.038416243752049745,0.0026853873012576386
168,1.0350742350448567,0.13775189434054677,0.006515428100297328,-0.07092332935130782,0.0013204655434129223
169,1.0378292729316676,0.1472345882079023,0.005096961513271171,-0.08323154593358636,0.0036060960561923976
170,1.0407739646958256,0.12263658968316105,0.0034323305945994434,-0.04483652722267533,0.0049100987462093485
171,1.0432266964894887,0.08286604105857914,0.0025356000501459367,0.015828047528553102,0.002807582522789698
172,1.0448840173106604,0.05005959506948032,0.0028521610007169987,0.06578302393716318,0.006566444152856883
173,1.04588520921205,0.17077869416027303,0.004167821479460262,-0.11445635398088203,0.009444098414421767
174,1.0493007830952557,0.2263655307695311,0.0018786943998426214,-0.19661054874016817,0.026991360715256305
175,1.0538280937106463,0.10522755844546405,-0.002053516574960742,-0.014351575092017621,0.004737387975957033
176,1.0559326448795556,0.14945333583265666,-0.002340548076801094,-0.08129383474881063,0.0070958855690521
177,1.0589217115962088,0.10199169693932655,-0.003966424771777307,-0.01078969191706003,0.006468119784829722
178,1.0609615455349954,0.03987838317109732,-0.0041822186101185075,0.08121342001156365,0.0024641710377143098
179,1.0617591131984174,0.09511558624998595,-0.0025579502098872346,-0.002871228681333521,0.012938545684280125
180,1.063661424923417,0.22804647021126118,-0.002615374783513905,-0.20301893882922376,0.0035840065789764643
181,1.0682223543276423,0.2121044606686322,-0.00667575356009838,-0.1798749256097183,0.00017964705321404
182,1.072464443541015,0.21305942897690908,-0.010273252072292747,-0.18327000312187336,0.020332343121052456
183,1.0767256321205532,0.11631627394631014,-0.013938652134730214,-0.04118321117385512,0.0013972455574750707
184,1.0790519575994795,0.1284271105688282,-0.014762316358207317,-0.06344553244420917,0.035982985800023036
185,1.081620499810856,-0.15098366777809194,-0.0160312270070915,0.3512850043803515,0.010945355780236516
186,1.0786008264552942,-0.0716682153302547,-0.009005526919484471,0.22761413458762692,0.0006812179603587153
187,1.077167462148689,-0.06070173426466439,-0.004453244227731933,0.2085174908893319,0.008098578151415273
188,1.0759534274633957,0.09360773436139011,-0.0002828944099452944,-0.024253666401351487,0.002868352051160636
189,1.0778255821506235,0.12386294813451312,-0.0007679677379723241,-0.0697196562004741,0.00483159859662154
