,X,v,theta,theta_dot,energy
0,0.0,0.0,0.3490658503988659,0.0,0.0
1,0.0,0.4222884469792313,0.3490658503988659,-0.49467808406654085,0.14565504782399277
2,0.008445768939584626,0.7690557664837802,0.3391722887175351,-0.8829061988309952,0.18446132838778143
3,0.02382688426926023,1.0090202603596943,0.32151416474091515,-1.1245311533903926,0.08202402012803406
4,0.04400728947645412,1.0878619571281216,0.2990235416731073,-1.1438286636136876,0.17969619235199805
5,0.06576452861901655,1.2520524041261867,0.2761469684008335,-1.292576665602454,0.23588037285103453
6,0.09080557670154028,1.4402340086420673,0.25029543508878443,-1.4839953633964984,0.15331342747416862
7,0.11961025687438163,1.545660740184172,0.22061552782085447,-1.5643867840618866,0.1294516259788754
8,0.15052347167806507,1.6283937465415828,0.18932779213961676,-1.6211423856217269,0.12160884294591655
9,0.18309134660889673,1.7022918371581064,0.15690494442718222,-1.6746783603008826,0.08646093652551862
10,0.21713718335205887,1.752264354230668,0.12341137722116458,-1.7027753103029395,0.24560264669619158
11,0.25218247043667225,1.6079945964293367,0.08935587101510578,-1.4518256296247918,0.06909621728124796
12,0.284342362365259,1.5632183162238542,0.060319358422609944,-1.3586934866388687,0.3393346262865892
13,0.3156067286897361,1.3420420061828142,0.03314548868983257,-1.0098092492370279,0.1416544801890507
14,0.3424475688133924,1.2349858777541274,0.012949303705092008,-0.8395702698291988,0.25242044137002895
15,0.36714728636847493,1.029047231286409,-0.0038421016914919684,-0.526881210408019,0.009547619008936204
16,0.3877282309942031,1.019833808135742,-0.01437972589965235,-0.5141907528047588,0.1384007438985668
17,0.40812490715691796,0.8845343656656623,-0.024663540955747527,-0.31549006501858956,0.10810651941024375
18,0.4258155944702312,0.7636890784534698,-0.030973342256119318,-0.1415276090997449,0.04905029605781477
19,0.4410893760393006,0.700943192150403,-0.03380389443811421,-0.05655862908489501,0.07673244258905024
20,0.45510823988230864,0.5942432448287274,-0.03493506701981211,0.09346340351065582,0.028498164668915176
21,0.4669931047788832,0.6411948273341574,-0.033065798949599,0.012810181612117513,0.009528935327436688
22,0.4798170013255663,0.6561530923250879,-0.032809595317356645,-0.01933452458123556,0.028862527883193802
23,0.49294006317206807,0.6136544762408125,-0.03319628580898135,0.034734800765087,0.023615181059393798
24,0.5052131526968843,0.6515750741662286,-0.03250158979367961,-0.03187267341915658,0.010295335347534957
25,0.5182446541802088,0.6365923522999914,-0.033139043262062746,-0.018964245024320894,0.007128204322789576
26,0.5309765012262087,0.6480054738188947,-0.03351832816254916,-0.045815623329605426,0.01007561908831149
27,0.5439366107025866,0.6332686504116027,-0.03443464062914127,-0.033575347817188864,0.07769717599129701
28,0.5566019837108186,0.5137836463839873,-0.03510614758548505,0.13542412595091646,0.005326256368874481
29,0.5668776566384983,0.5042927232428738,-0.03239766506646672,0.13933265133396322,0.03378248403499459
30,0.5769635111033558,0.5692971309837906,-0.029611012039787457,0.032353959762588924,0.05874347266377156
31,0.5883494537230316,0.46931797477584275,-0.02896393284453568,0.17355258628870163,0.003123822427815521
32,0.5977358132185484,0.4633462069810977,-0.025492881118761645,0.17399227521579003,0.05750000677691579
33,0.6070027373581703,0.58274446926051,-0.022013035614445845,-0.01254102009046465,0.038375851953657156
34,0.6186576267433805,0.6473681337845844,-0.022263856016255138,-0.11592434143030261,0.04022157990083469
35,0.6316049894190723,0.7087976334282091,-0.02458234284486119,-0.21459078777251214,0.038568218423197624
36,0.6457809420876365,0.6553244002232802,-0.028874158600311436,-0.1416316527412931,0.03434075523031955
37,0.658887430092102,0.6041092709129599,-0.0317067916551373,-0.07332880385190525,0.030522688910890276
38,0.6709696155103613,0.5550010049920344,-0.0331733677321754,-0.009023663959503825,0.006712298213840839
39,0.682069635610202,0.567283369199547,-0.03335384101136547,-0.037188255298351236,0.03512372386462635
40,0.6934153029941929,0.6283422949363605,-0.0340976061173325,-0.13852991475213405,0.0010940952464409373
41,0.7059821488929201,0.6305460567382362,-0.036868204412375184,-0.15185638977511498,0.0013531592605799166
42,0.7185930700276848,0.6289568246638855,-0.03990533220787748,-0.16031095831582934,0.008159525487738194
43,0.7311722065209625,0.6167240254016593,-0.04311155137419407,-0.15370542157226127,0.024825692263935314
44,0.7435066870289957,0.5776239917937805,-0.046185659805639295,-0.10778073661011903,0.016119160279950497
45,0.7550591668648713,0.6057384775014197,-0.04834127453784168,-0.16348125163983399,0.007470900201850014
46,0.7671739364148997,0.6186092029969723,-0.05161089957063836,-0.19697158622489855,0.009671418006622173
47,0.7795461204748392,0.6038724976469707,-0.055550331295136327,-0.1900628312079285,0.00539545972549058
48,0.7916235704277786,0.5958242414958466,-0.059351587919294894,-0.19433246805696358,0.016318465452568286
49,0.8035400552576956,0.569556630828431,-0.06323823728043416,-0.17243955371415773,0.00920138742495756
50,0.8149311878742642,0.5864351581733382,-0.06668702835471732,-0.2162863901426493,0.0028231984937051456
51,0.826659891037731,0.5921604519063866,-0.0710127561575703,-0.24444669958784832,0.033114871683095404
52,0.8385031000758587,0.5375928194087868,-0.07590169014932727,-0.1836617524835779,0.06494867371542891
53,0.8492549564640345,0.4190038570786334,-0.07957492519899882,-0.028584138833284256,0.00043908261212346626
54,0.8576350336056071,0.4211647351016191,-0.0801466079756645,-0.05518554461235435,0.013516867540189798
55,0.8660583283076395,0.39082500550364324,-0.08125031886791159,-0.03335992161212903,0.024677404830713935
56,0.8738748284177124,0.33017335787769975,-0.08191751730015417,0.03345609626528684,0.02058900253092465
57,0.8804782955752664,0.2708126893583644,-0.08124839537484843,0.09814168861736813,0.032660053222366835
58,0.8858945493624336,0.15626923142248136,-0.07928556160250107,0.24552932947337058,0.009713224529840147
59,0.8890199339908832,0.10081240823882526,-0.07437497501303365,0.3051677007177605,0.001728773206979014
60,0.8910361821556597,0.08716275157113418,-0.06827162099867845,0.3037394942338262,0.01104732263356029
61,0.8927794371870824,0.19487139242439377,-0.06219683111400193,0.12249664268705113,0.002056120204229145
62,0.8966768650355703,0.20576548047316506,-0.0597468982602609,0.08791302683853999,0.022920381988666572
63,0.9007921746450336,0.10004024859148103,-0.057988637723490104,0.228662764647672,0.008076070432373786
64,0.9027929796168632,0.17220637382603066,-0.053415382430536666,0.103556423376543,0.035753741274457004
65,0.9062371070933838,-0.024163945565928657,-0.051344253963005806,0.38199513340957336,0.00031281961736257327
66,0.9057538281820652,0.021303130590295143,-0.04370435129481434,0.2987958166376344,0.0003221458962697628
67,0.9061798907938711,0.01291422940421814,-0.03772843496206166,0.29852216355562217,1.9238638028233505e-05
68,0.9064381753819555,0.014160330456963705,-0.031757991690949214,0.28556481355469454,0.0014788610627635103
69,0.9067213819910948,0.06777964025835075,-0.026046695419855322,0.19584112440725704,0.0025265425734597017
70,0.9080769747962618,0.1002964179357494,-0.022129872931710183,0.13942563962198354,0.005883593929616395
71,0.9100829031549768,0.1544418906055387,-0.019341360139270514,0.05172166574617566,0.011922159881226496
72,0.9131717409670875,0.22890037122754797,-0.018306926824347,-0.06563117066236673,0.03341843248281591
73,0.9177497483916385,0.08485113704352829,-0.019619550237594336,0.14502453788956043,0.0036422216932537133
74,0.919446771132509,0.12399036736981187,-0.01671905947980313,0.08055921361570181,0.008095605415580175
75,0.9219265784799053,0.06235857450826298,-0.015107875207489093,0.16807880790638718,0.0001713639806063695
76,0.9231737499700706,0.06496317305916051,-0.01174629904936135,0.15973080959792288,0.004430780546122667
77,0.9244730134312539,0.12498278204371438,-0.008551682857402893,0.0662542744715471,0.010315833922411397
78,0.9269726690721282,0.2037352753294696,-0.007226597367971951,-0.054384310146258275,0.013591787571170728
79,0.9310473745787176,0.2697238670511223,-0.008314283570897116,-0.15548921424684695,0.0005008756900361876
80,0.93644185191974,0.27170334397394763,-0.011424067855834056,-0.16090269821221978,0.0007757275992801887
81,0.9418759187992191,0.2747293139489214,-0.01464212182007845,-0.16879995988359378,0.022915423010765504
82,0.9473705050781975,0.19122599052555544,-0.018018121017750327,-0.047863031323637076,0.004086928114298892
83,0.9511950248887087,0.17039391642404722,-0.01897538164422307,-0.021917033377673676,0.015485950138040973
84,0.9546029032171897,0.08148039475400687,-0.019413722311776543,0.10585081143205585,0.005655595742908254
85,0.9562325111122698,0.1456991823385835,-0.017296706083135428,0.003833506336224271,0.0034710407990919535
86,0.9591464947590415,0.12273317418788356,-0.01722003595641094,0.03319238750220323,0.0040737114733209725
87,0.9616011582427991,0.1549682453816454,-0.016556188206366878,-0.02021549084368083,0.004001595264345294
88,0.9647005231504321,0.12986366420551626,-0.016960498023240494,0.01256892306016525,0.005464018976865209
89,0.9672977964345424,0.08923865840070822,-0.01670911956203719,0.06851152002197208,0.010052660428965354
90,0.9690825696025566,0.195672170206454,-0.015338889161597747,-0.0960287140174099,0.015190924102916899
91,0.9729960130066857,0.11842437065669116,-0.017259463441945944,0.015319897762995943,0.006059797170706656
92,0.9753645004198195,0.16830109602404572,-0.016953065486686025,-0.06455807759265128,0.017409864523053164
93,0.9787305223403004,0.0658339729805096,-0.01824422703853905,0.08413655771124115,0.0029517765766462114
94,0.9800472017999107,0.1074362804919183,-0.016561495884314225,0.016379976513198405,0.0011184041669079659
95,0.982195927409749,0.09758780583336293,-0.016233896354050256,0.02628180538575866,0.002709990166246537
96,0.9841476835264164,0.07105623333156082,-0.015708260246335082,0.061301364272221714,0.00694684509868491
97,0.9855688081930476,0.1630619228529238,-0.014482232960890648,-0.08130818218620878,0.007022955734998719
98,0.9888300466501061,0.20626195347911763,-0.016108396604614824,-0.15035906048101982,0.029213257437981293
99,0.9929552857196885,0.06358322854958409,-0.01911557781423522,0.05889559696628324,0.004450255426875168
100,0.9942269502906802,-0.0016665638516175085,-0.017937665874909553,0.15113276652498958,0.00040324157225528166
101,0.9941936190136479,-0.07703139688776672,-0.014915010544409761,0.2588884385710817,0.0020782268487808406
102,0.9926529910758926,-0.10788440974848915,-0.009737241772988129,0.3007779598216015,0.011761928365861232
103,0.9904953028809228,0.014052537811843069,-0.0037216825765560993,0.11501850555526874,0.0015773165175906212
104,0.9907763536371597,0.09391878916431895,-0.0014213124654507245,-0.005874213960158539,0.0032547201316461484
105,0.9926547294204461,0.060033397628464,-0.0015387967446538952,0.044535956279830764,0.0024250325758326525
106,0.9938553973730153,0.02193154089563317,-0.0006480776190572799,0.10123626764879479,0.005166646268218937
107,0.9942940281909279,0.21191538101856752,0.001376647733918616,-0.18392996749670898,0.022887283970105286
108,0.9985323358112993,0.10220021455244664,-0.0023019516160155636,-0.018952639437332774,0.00614723974169927
109,1.0005763401023482,0.16141400017145913,-0.0026810044047622193,-0.10844985571380776,0.01110409115302607
110,1.0038046201057773,0.09222348907862339,-0.004850001519038374,-0.005452676419946054,0.0037635064744259315
111,1.0056490898873498,0.05237261387057731,-0.004959055047437296,0.052897038492425254,0.0038336577859667234
112,1.0066965421647613,-0.015835796513977506,-0.0039011142775887907,0.15375043981610617,0.0004942540665417678
113,1.0063798262344819,0.03872324593323755,-0.0008261054812666673,0.07076557419397553,0.003007050977177193
114,1.0071542911531466,0.10868543976827269,0.0005892060026128432,-0.03442055573315825,0.009320549400845504
115,1.009327999948512,0.023789525751923682,-9.920511205032182e-05,0.09309651974152552,0.002058171796792304
116,1.0098037904635506,0.09545003428895288,0.0017627252827801887,-0.01442340883796979,0.0011916681553555714
117,1.0117127911493298,0.08316029020241889,0.001474257106020793,0.004529419616572626,0.0075000088056417615
118,1.0133759969533782,0.1709095255583923,0.0015648454983522454,-0.12666085894736945,0.011764461916174519
119,1.016794187464546,0.24038373290230491,-0.0009683716805951436,-0.23041197798123442,0.01164720056766366
120,1.0216018621225922,0.1909734679663149,-0.005576611240219832,-0.15658131655746943,0.021388056599634747
121,1.0254213314819185,0.0775606165925452,-0.00870823757136922,0.011895800068142948,0.002160336690766369
122,1.0269725438137693,0.05069960190791277,-0.008470321570006361,0.04962560489544382,0.00015150025138568906
123,1.0279865358519276,0.05361217040524355,-0.0074778094720974846,0.04276666410945267,0.00013648830965247305
124,1.0290587792600325,0.05611623151298123,-0.006622476189908431,0.03681222196731262,0.0046097275351367735
125,1.0301811038902922,0.13403298571155953,-0.005886231750562179,-0.08200734020059747,0.011197609126526951
126,1.0328617636045234,0.050279981172664315,-0.007526378554574128,0.04188944808437585,0.0007123788076104711
127,1.0338673632279767,0.0637061778955604,-0.006688589592886611,0.019537989002018044,0.0011389208110093574
128,1.035141486785888,0.08100391548872142,-0.006297829812846251,-0.008374467678350348,0.0006495750289432064
129,1.0367615650956623,0.07323384771835813,-0.006465319166413258,0.0014288531164338633,0.0023725040177111777
130,1.0382262420500294,0.041748543623276894,-0.006436742104084581,0.04675503159732537,0.0024721665054856772
131,1.039061212922495,-0.013131971153157534,-0.005501641472138073,0.12718170931412875,0.00045207170533456144
132,1.0387985734994318,0.04694443620470122,-0.002958007285855498,0.035450987637932904,0.002553495477359394
133,1.0397374622235258,0.09829300971539603,-0.00224898753309684,-0.0424411885345945,0.003681459894504661
134,1.0417033224178338,0.061053335989903874,-0.00309781130378873,0.01275697900919616,0.007184017480733711
135,1.0429243891376319,0.1748155815701098,-0.002842671723604807,-0.1587963256444272,0.02081502155158634
136,1.046420700769034,0.05368914201864895,-0.006018598236493351,0.0220568552247854,0.002481479626719854
137,1.0474944836094071,0.009510071203964618,-0.0055774611319976426,0.0865548040103656,0.0014173397454040183
138,1.0476846850334864,0.11244130803031006,-0.0038463650517903307,-0.06947941481220225,0.009893078327612895
139,1.0499335111940926,0.024177527848820768,-0.005235953348034375,0.06178444755889455,8.229449884683989e-05
140,1.050417061751069,0.02722775202941736,-0.004000264396856484,0.055669810754113785,0.0005266746629113417
141,1.0509616167916573,0.04455190080445984,-0.0028868681817742084,0.0285077209124853,0.0025654193308895495
142,1.0518526548077465,0.09918374796880089,-0.0023167137635245025,-0.054288446424121256,0.011754648891648867
143,1.0538363297671225,-0.019356312629173797,-0.0034024826920069275,0.12284005406801227,0.0002557263927704437
144,1.053449203514539,-0.0011928057546902182,-0.000945681610646682,0.09459462348247154,6.466486598462696e-05
145,1.0534253473994453,0.01912609208133996,0.0009462108590027488,0.06383826000493786,0.0011086609687070194
146,1.0538078692410722,0.06821498159924005,0.002222976059101506,-0.009516855358364662,0.0024437121106983674
147,1.0551721688730569,0.03301012735217457,0.0020326389519342127,0.043943849958566504,0.003457881857994093
148,1.0558323714201003,0.12934706003838806,0.002911515951105543,-0.09996365510971589,0.007666108045426588
149,1.058419312620868,0.06937801304952887,0.0009122428489112249,-0.009154481410727916,0.0030648030014997856
150,1.0598068728818586,0.11272294971452287,0.0007291532206966666,-0.07390365999451946,0.007558941154219225
151,1.0620613318761492,0.18014416617369855,-0.0007489199791937227,-0.1748210867712985,0.0064607682449430125
152,1.0656642151996232,0.14355053092821346,-0.004245341714619693,-0.12015083174988017,0.007220086140987683
153,1.0685352258181875,0.1946216911593802,-0.006648358349617297,-0.19800500847379143,0.021195848561089563
154,1.072427659641375,0.08331387076208402,-0.010608458519093126,-0.0330015707299163,0.004937058580907404
155,1.0740939370566167,0.024593310380411702,-0.011268489933691452,0.05195548530160596,0.0026476153456682244
156,1.074585803264225,-0.07107283176032206,-0.010229380227659332,0.19213272199666576,0.0026409076418825537
157,1.0731643466290186,-0.11225603113482571,-0.0063867257877260174,0.2508969036849465,0.0018032576946306945
158,1.070919226006322,-0.09472070182909842,-0.0013687877140270872,0.22271676156127446,0.0054979233852530205
159,1.06902481196974,-0.031296847958989696,0.0030855475171984023,0.12717864641607446,0.0016696320408196798
160,1.0683988750105602,0.03249750350856401,0.005629120445519891,0.03239472426554557,0.0026532725331929728
161,1.0690488250807315,-0.043784434368462855,0.006277014930830803,0.14847077089759142,0.0036632429856833636
162,1.0681731363933622,0.05262336367575929,0.009246430348782631,0.005707353009601596,0.0015765806813105646
163,1.0692256036668775,0.023405342807321927,0.009360577408974663,0.05225092258366573,0.000787089489394016
164,1.069693710523024,-0.006514719301928686,0.010405595860647978,0.09988101912554012,0.00013233639633182257
165,1.0695634161369854,0.05870815665999104,0.012403216243158781,0.005111191685732097,0.002645838874641833
166,1.0707375792701852,0.10232494768240125,0.012505440076873424,-0.056662510335554146,0.006127177291500935
167,1.0727840782238331,0.1620723940561344,0.011372189870162341,-0.14260016868273695,0.0001870727379003309
168,1.0760255261049558,0.16308254236946626,0.008520186496507601,-0.14077194141779714,0.005675878562026124
169,1.079287176952345,0.12761923872225214,0.005704747668151659,-0.08507401221831559,0.01523922928351881
170,1.0818395617267902,0.24767670661929675,0.004003267423785347,-0.26348009697871033,0.03899241644070863
171,1.086793095859176,0.08622254209245714,-0.0012663345157888604,-0.020123833323457185,0.0031938283250749584
172,1.0885175467010253,0.04971498208194373,-0.0016688111822580041,0.03426516053645361,0.008401553075121884
173,1.089511846342664,0.2096031086854334,-0.000983507971528932,-0.20605732567069196,0.004696263031514615
174,1.0937039085163727,0.18673567898109783,-0.005104654484942771,-0.17204534900074292,0.0052190534649211
175,1.0974386220959946,0.15834979393886492,-0.00854556146495763,-0.13096783808590357,0.01637459584728163
176,1.1006056179747719,0.05364644950154869,-0.011164918226675702,0.023569079514210806,0.004996560380028137
177,1.1016785469648027,0.14289377029376443,-0.010693536636391486,-0.11357597565296851,0.00024928099141848377
178,1.104536422370678,0.14481272928031733,-0.012965056149450857,-0.11959808941020986,0.011462398213518417
179,1.1074326769562843,0.0647650705878137,-0.015357017937655055,-0.003348312520875585,0.009404226734470781
180,1.1087279783680406,-0.07700956367530393,-0.015423984188072566,0.20477377667288543,0.006440414230205016
181,1.1071877870945346,-0.16959537153499615,-0.011328508654614856,0.3391014976615341,0.0015807358065949367
182,1.1037958796638347,-0.15943195294106652,-0.004546478701384174,0.32052683769625756,0.004614875749145274
183,1.1006072406050134,-0.128287333159459,0.0018640580525409768,0.2724737307201308,0.023706621287969975
184,1.0980414939418242,0.07123692565576847,0.007313532666943593,-0.026264104785724496,0.0004967406378370397
185,1.0994662324549396,0.07805097203067167,0.006788250571229103,-0.03433474156214635,0.0015310604897148378
186,1.101027251895553,0.05842550864943178,0.006101555739986176,-0.0029014944082516453,0.002301950609490883
187,1.1021957620685416,0.019812365180526627,0.006043525851821143,0.056810988909416375,0.001035097460327308
188,1.1025920093721522,0.06481905236362007,0.007179745630009471,-0.008921023209442498,0.0017346049766043968
189,1.1038883904194245,0.09098836873867922,0.007001325165820621,-0.0460631589497378,0.003221647233247014
