,X,v,theta,theta_dot,energy
0,0.0,0.0,0.5235987755982988,0.0,0.0
1,0.0,0.47520784902477126,0.5235987755982988,-0.4703131039998182,0.2690057077493346
2,0.009504156980495426,1.0336155653235404,0.5141925135183024,-1.0487060059758,0.3754059247326367
3,0.030176468286966233,1.390929709546457,0.4932183933987864,-1.3707722766899986,0.5342166758147512
4,0.057995062477895376,1.7698142058909099,0.46580294786498644,-1.7321640576902677,0.5243577591531124
5,0.09339134659571358,2.0621813116466967,0.4311596667111811,-1.9919448004499172,0.5308657593632208
6,0.1346349728286475,2.316781530590191,0.39132077070218274,-2.2160244248151733,0.612799953935034
7,0.18097060344045132,2.57971216953517,0.34700028220587925,-2.4684720144222725,0.2275191493381382
8,0.23256484683115472,2.6661622807660836,0.29763084191743383,-2.4904351086062055,0.09856342323603001
9,0.2858880924464764,2.626561098340627,0.24782213974530973,-2.3474277221682884,0.03196447827408125
10,0.33841931441328893,2.61217030032555,0.20087358530194396,-2.25438480026758,0.2506327521487126
11,0.39066272041979994,2.513277159088051,0.15578588929659237,-2.050367331591349,0.37705064916631625
12,0.44092826360156095,2.3600381345521315,0.11477854266476539,-1.7776763879998303,0.07224968644998038
13,0.4881290262926036,2.3278696858641434,0.07922501490476878,-1.696070362123617,0.123500712750937
14,0.5346864200098864,2.273456928532254,0.04530360766229644,-1.5914394415399213,0.2580764789741489
15,0.5801555585805315,2.1585508601870265,0.013474818831498016,-1.405942480129052,0.4506325732270944
16,0.623326575784272,1.9484982254330883,-0.014644030771083026,-1.086930655272445,0.3485279701324641
17,0.6622965402929337,1.7696484805307282,-0.03638264387653192,-0.8229899940035977,0.44388867141543686
18,0.6976895099035483,1.5201740979180864,-0.05284244375660388,-0.4597202017286106,0.24655584831669475
19,0.72809299186191,1.3605171364513617,-0.06203684779117609,-0.23609749155585613,0.015674706813322625
20,0.7553033345909372,1.3500748048852325,-0.06675879762229321,-0.23869126217374761,0.060768624463906545
21,0.7823048306886419,1.3067714058396764,-0.07153262286576817,-0.19349336470912396,0.005604331405046646
22,0.8084402588054354,1.3120015845875372,-0.07540249015995065,-0.22233123001422295,0.13595640695761124
23,0.8346802904971861,1.2112369509976588,-0.07984911476023511,-0.09376108337229952,0.09140111995236266
24,0.8589050295171392,1.2862212182899482,-0.0817243364276811,-0.22932980808113398,0.22963089337447937
25,0.8846294538829381,1.111873804125044,-0.08631093258930378,0.007318248349430734,0.06507838164982142
26,0.906866929965439,1.1701595756681398,-0.08616456762231517,-0.10512887771608079,0.06720491253953428
27,0.9302701214788018,1.1151577174366991,-0.08826714517663678,-0.04823321351204649,0.029452605645421136
28,0.9525732758275358,1.1422189851498767,-0.08923180944687771,-0.11458394680813264,0.044089642891222566
29,0.9754176555305334,1.1056816815616586,-0.09152348838304036,-0.08619538958561176,0.04778685727462427
30,0.9975312891617666,1.1492741718534782,-0.0932473961747526,-0.17818080558731952,0.11256092083934374
31,1.0205167725988362,1.246766154805007,-0.09681101228649899,-0.35115848821449314,0.13138009026950265
32,1.0454520956949365,1.1440715016628116,-0.10383418205078886,-0.22625581260109726,0.06810295927655505
33,1.0683335257281927,1.2040963568166474,-0.1083592983028108,-0.3462805850705794,0.0754755039700476
34,1.0924154528645258,1.1437189662482026,-0.11528491000422239,-0.28804100706424807,0.11380413112294448
35,1.1152898321894897,1.0472489102525269,-0.12104573014550735,-0.17811520324597402,0.1511023681571373
36,1.1362348103945403,0.90725928346408,-0.12460803421042682,-0.005167842232737863,0.06901790935130452
37,1.154379996063822,0.983178693702973,-0.12471139105508158,-0.15470402121342394,0.051725094494127856
38,1.1740435699378813,0.9333086275855509,-0.12780547147935006,-0.11705006884593486,0.025519569135768548
39,1.1927097424895923,0.9619138239151883,-0.13014647285626876,-0.19708050648852193,0.012071922242875783
40,1.211948018967896,0.9760948051078953,-0.1340880829860392,-0.25632722038191275,0.05504126156217257
41,1.2314699150700539,0.9223842770486961,-0.13921462739367746,-0.21578848549282392,0.0834312735827174
42,1.2499176006110277,0.8352870036194464,-0.14353039710353394,-0.12720356005827274,0.030286016624278156
43,1.2666233406834166,0.8017473975362039,-0.1460744683046994,-0.11946467281892793,0.07975298945030365
44,1.2826582886341407,0.7062563140491877,-0.14846376176107795,-0.020546834292167665,0.0048028869076905244
45,1.2967834149151245,0.7149836286205977,-0.1488746984469213,-0.07698197552441946,0.029673043505078597
46,1.3110830874875365,0.7577040452402816,-0.1504143379574097,-0.18396143948285065,0.104699949307778
47,1.3262371683923422,0.6237469394133628,-0.1540935667470667,-0.02934978483716258,0.028542217710707696
48,1.3387121071806094,0.5812574013695326,-0.15468056244380995,-0.011495095772995123,0.062101234438658816
49,1.350337255208,0.4792913088901114,-0.15491046435926986,0.0943329937211118,0.04893275205283369
50,1.359923081385802,0.3829130712863288,-0.15302380448484762,0.1918074654267365,0.03599473071450109
51,1.3675813428115287,0.2955259261246256,-0.14918765517631288,0.2765428391233262,0.028669647865566687
52,1.3734918613340212,0.20694170720223543,-0.14365679839384635,0.36424454788479216,0.008464746322505627
53,1.377630695478066,0.17203061444162465,-0.1363719074361505,0.37398178429513923,0.013363086739920583
54,1.3810713077668983,0.24287120649426783,-0.1288922717502477,0.22873826351915752,0.0048463524413456145
55,1.3859287318967837,0.2633426629698296,-0.12431750647986455,0.16049630787903507,0.0032724769510936204
56,1.3911955851561804,0.25331622210627563,-0.12110758032228384,0.13896462541567114,0.00708709527084264
57,1.3962619095983058,0.22842497732213213,-0.11832828781397042,0.1405093621302196,0.026621815316816833
58,1.4008304091447483,0.11958445979618494,-0.11551810057136604,0.2679211256384505,0.001194955843817087
59,1.403222098340672,0.11237238892186034,-0.11015967805859703,0.24478029413782504,0.006806733780523723
60,1.4054695461191091,0.0601796112033753,-0.10526407217584052,0.2902734336737017,0.011422181475165164
61,1.4066731383431765,-0.09022627918460578,-0.09945860350236649,0.4837429746310099,0.006843730582107212
62,1.4048686127594845,-0.1864675475926308,-0.08978374400974629,0.5981988058490597,8.288726811383056e-05
63,1.401139261807632,-0.1857259657555804,-0.0778197678927651,0.5707299426600524,0.012180750044453506
64,1.3974247424925204,-0.25894872168573063,-0.06640516903956405,0.657375744676422,0.015758779416133933
65,1.3922457680588058,-0.3251073749703997,-0.0532576541460356,0.7368862282725823,0.08408485553956199
66,1.3857436205593978,-0.04315435047667321,-0.03851992958058396,0.2989059942476489,0.0023312866502659857
67,1.3848805335498644,0.034286042103539166,-0.03254180969563098,0.17150951449507829,0.004175351487635253
68,1.3855662543919351,0.13155206161138022,-0.029111619405729414,0.016122126156778743,0.0036214402132074483
69,1.3881972956241628,0.10526252802985168,-0.028789176882593838,0.04698211044968413,0.00020406394389478928
70,1.3903025461847598,0.1038214619912012,-0.027849534673600157,0.040679964919475835,0.000728606498081871
71,1.3923789754245839,0.11094715739064238,-0.02703593537521064,0.021808861716270077,0.0012586613486604765
72,1.3945979185723967,0.12230409381330143,-0.02659975814088524,-0.00316791406489611,0.008248339052193148
73,1.3970440004486626,0.05681492873798963,-0.02666311642218316,0.0872116763763613,0.0029965680515715953
74,1.3981802990234224,0.10529556546748586,-0.024918882894655936,0.006678541759043047,0.012516349959121606
75,1.4002862103327722,0.22128373580516608,-0.024785312059475074,-0.17457509273681293,0.022527772251281237
76,1.4047118850488756,0.11862825173214754,-0.028276813914211333,-0.02792529675327135,0.008560689260342404
77,1.4070844500835185,0.04787262045347496,-0.02883531984927676,0.06985344652802095,0.0020495055660724438
78,1.4080419024925879,0.009117655531194889,-0.027438250918716343,0.11948531846108562,0.0003334116573643519
79,1.4082242556032118,-0.012848911737474537,-0.02504854454949463,0.14435693325867596,0.0002821890137155809
80,1.4079672773684624,0.03128305340817599,-0.02216140588432111,0.07081624970177668,0.00025125361797092075
81,1.4085929384366258,0.03870523383600612,-0.020745080890285577,0.053170792855192966,0.0012058188546845707
82,1.409367043113346,0.06760974704179806,-0.01968166503318172,0.003724735858553152,9.582521244155802e-05
83,1.410719238054182,0.06651266277109012,-0.019607170316010655,-0.0004159924052869104,0.0015873228736656311
84,1.4120494913096038,0.09008264385157723,-0.019615490164116393,-0.04152830701882946,0.005314803974705137
85,1.4138511441866353,0.03157358983576645,-0.020446056304492984,0.04045180596877156,0.0015860975807141687
86,1.4144826159833506,0.07817843001840204,-0.01963702018511755,-0.03545156450093625,0.005250497775811719
87,1.4160461845837187,0.011560748807788013,-0.020346051475136278,0.05868277857328332,0.0008953425143724434
88,1.4162773995598745,-0.04954073672360841,-0.019172395903670612,0.1443347108232905,0.0004959007443253317
89,1.4152865848254024,-0.060522178332048475,-0.016285701687204803,0.15516750682442448,0.0038195690202195097
90,1.4140761412587615,0.009401342662615032,-0.013182351550716313,0.045508349425936234,0.0007569571046984776
91,1.4142641681120138,0.07397590237573426,-0.012272184562197589,-0.05522057332184159,0.0021061422987412133
92,1.4157436861595285,0.04540044269890505,-0.01337659602863442,-0.015968543200554755,0.0010790248263552518
93,1.4166516950135066,0.06915579493738294,-0.013695966892645515,-0.05553098558880001,0.005841385461048234
94,1.4180348109122543,-0.016174954361565186,-0.014806586604421515,0.06842664543966048,0.0006057828391807044
95,1.4177113118250229,0.02927264043442617,-0.013438053695628305,-0.004090251516491769,0.0010964520833599267
96,1.4182967646337115,-0.007310713668135904,-0.01351985872595814,0.046829156128835266,6.867373164814308e-05
97,1.4181505503603486,-0.02004509272814521,-0.012583275603381435,0.06195426161489326,0.0002650799216545617
98,1.4177496485057857,-0.004854617881698947,-0.011344190371083569,0.035470967853339544,0.00015705035633910516
99,1.4176525561481517,-0.05194660742133828,-0.010634771014016779,0.10276928655241623,0.00121300741538777
100,1.416613623999725,-0.02676195949086693,-0.008579385282968454,0.06186788715078124,0.001530794203530645
101,1.4160783848099077,0.03571835935449724,-0.00734202753995283,-0.03437145028075455,0.0008509600863919944
102,1.4167927519969976,0.011517516275130129,-0.008029456545567921,-0.0002297007776681445,0.0007205882894800638
103,1.4170231023225002,0.07272635114178863,-0.008034050561121284,-0.09440062825197104,0.007437581019229072
104,1.418477629345336,-0.033187295848280646,-0.009922063126160705,0.062102729581187455,0.0030936014958356482
105,1.4178138834283704,-0.13244136193763217,-0.008680008534536956,0.20805946160539804,0.0004502542390900484
106,1.4151650561896179,-0.12874549548882205,-0.004518819302428995,0.19996398030831808,0.015469618560194853
107,1.4125901462798414,-0.002550494170100337,-0.0005195396962626338,0.009344882624098827,0.00015088442761076098
108,1.4125391363964395,0.06670589190120942,-0.00033264204378065723,-0.09469242712635532,0.0024500937584012753
109,1.4138732542344636,0.02840504291442625,-0.002226490586307764,-0.03733895358376116,0.0008516941591823365
110,1.4144413550927522,0.05954848421655784,-0.0029732696579829873,-0.08470858743894402,0.002768194228543069
111,1.4156323247770832,0.011103373400110299,-0.004667441406761868,-0.01291538240869794,0.0007643164871362278
112,1.4158543922450855,-0.059736018858649036,-0.004925749054935827,0.09197032576266773,0.0022374322567020183
113,1.4146596718679125,-0.020374013202834065,-0.003086342539682472,0.031479869191866884,0.0007486347736338258
114,1.4142521916038557,-0.05888597127206833,-0.0024567451558451343,0.0883401478952806,0.0031152847372852813
115,1.4130744721784143,-0.0034603389853839275,-0.0006899421979395224,0.004479668010952356,0.00015994163828908576
116,1.4130052653987066,-0.05136390665698181,-0.0006003488377204754,0.07613215942594784,0.0021017532920550907
117,1.411977987265567,-0.008550551301492938,0.0009222943507984813,0.011735635418078094,0.00019547445082519508
118,1.411806976239537,-0.03235123741543242,0.0011570070591600432,0.04770780390555393,7.633490497090906e-05
119,1.4111599514912285,-0.034835236811429936,0.0021111631372711217,0.05177396050511721,0.0022458723201929836
120,1.410463246755,-0.10232139450789532,0.0031466423473734658,0.15362365296134337,0.010137587019098384
121,1.408416818864842,0.0013724756073652256,0.006219115406600333,-0.0009912708560972094,7.100206364185536e-05
122,1.4084442683769893,0.053467356127494696,0.006199289989478389,-0.0773036723272594,0.0010481123596582378
123,1.4095136154995391,0.03290857828338503,0.004653216542933201,-0.04464351855014987,0.0017901697625323885
124,1.4101717870652068,-0.023717125781952703,0.0037603461719302035,0.041662158713402585,0.001621162132681392
125,1.4096974445495678,-0.09624460485905947,0.004593589346198255,0.15155814733411146,0.006289599518855374
126,1.4077725524523865,-0.1649818025434674,0.007624752292880485,0.2560133665599139,0.01913686819046499
127,1.4044729164015173,-0.043339177868029585,0.012745019624078764,0.07579638891359974,0.003472243834782097
128,1.4036061328441567,0.041390593064740105,0.01426094740235076,-0.04754101095329884,0.0027820968095523635
129,1.4044339447054515,0.11037326451041192,0.013310127183284783,-0.14681191988433245,0.0012728733611112922
130,1.4066414099956597,0.12215766831247726,0.010373888785598133,-0.16057389797119925,0.0004671067320384873
131,1.4090845633619091,0.11804160633472094,0.0071624108261741475,-0.15135026862298334,0.010763789275417785
132,1.4114453954886035,0.2124066123913867,0.004135405453714481,-0.29078841624203244,0.027295082473131515
133,1.4156935277364313,0.07865895399186501,-0.001680362871126168,-0.08895283837432222,0.001940749987110877
134,1.4172667068162685,0.10405860287488743,-0.0034594196386126125,-0.12754628436128349,0.0020279877361349483
135,1.4193478788737663,0.08397280033723573,-0.006010345325838282,-0.09843482818363591,0.008540684869312226
136,1.4210273348805111,-0.020752380304177767,-0.007979041889511,0.056883074561023345,0.002128300185330552
137,1.4206122872744276,0.0936570082662752,-0.006841380398290534,-0.11707135883320624,0.011774981808208834
138,1.4224854274397531,-0.03629138194963093,-0.009182807574954658,0.07583531473578412,0.0030409053370726857
139,1.4217595998007606,0.054166595345832264,-0.007666101280238976,-0.06254563790180317,0.0053572939532636815
140,1.4228429317076772,-0.04755958203473823,-0.00891701403827504,0.08778533272293074,5.635702986795708e-05
141,1.4218917400669824,-0.04616983141456256,-0.007161307383816425,0.08307922228427236,0.00205398426343688
142,1.420968343438691,0.0012012906949341595,-0.005499722938130978,0.009918954784190831,0.0001635507690307692
143,1.4209923692525896,-0.09529811131439508,-0.005301343842447161,0.15304895830140863,0.006115659376186299
144,1.4190864070263018,-0.16276115328510388,-0.002240364676418988,0.2526835114731632,0.023831870915178622
145,1.4158311839605997,-0.009032170553567392,0.002813305553044276,0.02143194941303911,0.000659347185743693
146,1.4156505405495283,0.07075691256855943,0.003241944541305058,-0.09742409089964132,0.0023727865964804345
147,1.4170656788008995,0.035809765937902915,0.0012934627233122315,-0.04405051640411315,0.001520038145750347
148,1.4177818741196575,-0.008073757799255246,0.00041245239522996844,0.022154992071889125,0.00010931015691332888
149,1.4176203989636724,-0.023170713823384922,0.0008555522366677509,0.04492168518265678,1.5149030245487657e-05
150,1.4171569846872047,-0.023882478703177484,0.0017539859403208867,0.046240864438497585,0.0012653085761800303
151,1.4166793351131413,-0.08058401055588611,0.0026788032290908383,0.13180870298936054,0.01762831498491008
152,1.4150676549020236,0.14994084587270973,0.005314977288878049,-0.2131897737643671,0.0007398830602950442
153,1.4180664718194778,0.14471809719049444,0.001051181813590707,-0.20379316542784207,0.014239440676109728
154,1.4209608337632877,0.0421438521018425,-0.0030246814949661345,-0.0496228354056896,0.002905320154029556
155,1.4218037108053245,-0.02887266305344853,-0.004017138203079926,0.05601219504252539,0.0009268738118486843
156,1.4212262575442556,-0.06316297379763212,-0.0028968943022294183,0.1062662106868043,0.002454801862790763
157,1.4199629980683028,-0.0220651214298749,-0.0007715700884933325,0.043768005071135194,0.00030417006421380385
158,1.4195216956397054,-0.007272418369642403,0.00010379001292937142,0.021352115502074758,7.249107414027681e-05
159,1.4193762472723126,-0.018496452508853185,0.0005308323229708666,0.038218680883955324,7.328207630653132e-05
160,1.4190063182221355,-0.014238077277814341,0.001295205940649973,0.031987183632974245,0.0003281578514930231
161,1.4187215566765792,0.010786453203035432,0.001934949613309458,-0.005168790163136094,0.00017502561067126267
162,1.41893728574064,-0.0054244461304956155,0.001831573810046736,0.01971638814793663,0.00021501796503263339
163,1.41882879681803,-0.05177625420254483,0.0022259015730054688,0.08978246603411708,0.0024925870924982466
164,1.4177932717339792,-0.0008221320062017437,0.00402155089368781,0.014005886606005144,1.547563676874128e-05
165,1.417776829093855,0.0805091445117588,0.004301668625807913,-0.10680770887626119,0.001247343295223661
166,1.4193870119840901,0.06436224118321406,0.002165514448282689,-0.0813228912984864,0.003187234126217488
167,1.4206742568077544,0.11558739718316882,0.0005390566223129611,-0.1575237843848281,0.0077272593003701855
168,1.4229860047514178,0.04605111858544163,-0.002611419065383601,-0.05306089900344771,0.0058559382705270675
169,1.4239070271231267,-0.0848281010857637,-0.003672637045452555,0.14248950477207403,0.004096333634138034
170,1.4222104651014114,-0.13578190536822998,-0.0008228469500110745,0.21783994287359565,0.02063706422825291
171,1.4194948269940468,0.02417347076918841,0.0035339519074608387,-0.02233495708194838,0.001883283796992081
172,1.4199782964094305,0.10346161497994426,0.003087252765821871,-0.1402274510393811,0.003310086263042994
173,1.4220475287090295,0.07015518444967025,0.00028270374503424874,-0.0893603924583844,0.005775325096353351
174,1.423450632398023,0.1554012157614879,-0.0015045041041334393,-0.21714631941644086,0.011550951080296853
175,1.4265586567132527,0.07798754504550644,-0.0058474304924622566,-0.10146826880346538,0.004152020383129675
176,1.4281184076141629,0.133277017143497,-0.007876795868531565,-0.1861201938607255,0.008671536625449448
177,1.4307839479570328,0.06561072726880089,-0.011599199745746075,-0.08693966178222876,0.0006059240987493246
178,1.432096162502409,0.07536417910767895,-0.013337992981390651,-0.10497894362671513,0.010290833271761364
179,1.4336034460845626,-0.06666447719206664,-0.015437571853924954,0.10412383704368701,0.002129068514787402
180,1.4322701565407212,-0.09998170396071224,-0.013355095113051213,0.14955525637495568,0.000780751066836819
181,1.4302705224615069,-0.10796460296639783,-0.010363989985552099,0.15760225578905135,0.005706735322504982
182,1.428111230402179,-0.16304876968750395,-0.007211944869771072,0.2371771098648574,0.016549220590783554
183,1.424850255008429,-0.05691226261304533,-0.0024684026724739235,0.07585619611464195,0.0023390767515617597
184,1.4237120097561682,-0.09956006595473446,-0.0009512787501810844,0.1391019965883521,0.0002845795471889266
185,1.4217208084370736,-0.10252420545609689,0.0018307611815859576,0.14326852791826702,0.00893323083153801
186,1.4196703243279516,-0.01177696609136994,0.004696131739951298,0.007686140475051506,0.0004331149088600745
187,1.4194347850061242,-0.04882062096410829,0.004849854549452328,0.06463166773111848,0.0032676971726911747
188,1.418458372586842,0.020590946606823132,0.006142487904074697,-0.03805860750300066,0.0008297550103454725
189,1.4188701915189785,0.06342281453378809,0.005381315754014684,-0.10049931726968736,0.008615475645398425
