,X,v,theta,theta_dot,energy
0,0.0,0.0,0.8726646259971648,0.0,0.0
1,0.0,0.47888841649706415,0.8726646259971648,-0.23651824454310005,0.282443355908828
2,0.009577768329941283,1.0319731665386582,0.8679342611063028,-0.5445752149160905,0.5742582712870703
3,0.03021723166071445,1.5543678309835327,0.8570427568079809,-0.8267716665688243,0.9177186186134473
4,0.061304588280385104,2.1099133328393185,0.8405073234766044,-1.1500874159965104,1.1181394436622705
5,0.10350285493717148,2.6092898874597976,0.8175055751566742,-1.4307526999623608,1.53847865053422
6,0.15568865268636745,3.1672340920942816,0.788890521157427,-1.7887834422372324,1.8496813191717332
7,0.21903333452825308,3.7222781784691037,0.7531148523126823,-2.166822866759214,1.6521140098680522
8,0.29347889809763517,4.145487788608602,0.709778394977498,-2.428888538107964,2.2312646009743498
9,0.3763886538698072,4.662256167935793,0.6612006242153387,-2.8252569353033707,2.3577236794548107
10,0.46963377722852306,5.151172622787967,0.6046954855092712,-3.2235418869778765,1.9295935500545232
11,0.5726572296842825,5.516007684607107,0.5402246477697137,-3.5066106473730487,0.5577111768266405
12,0.6829773833764246,5.615133521009756,0.4700924348222527,-3.4829124799827476,0.08937119475359537
13,0.7952800537966197,5.599009587674489,0.40043418522259777,-3.3281773146444444,0.09390920471397066
14,0.9072602455501095,5.581482140537181,0.33387063892970886,-3.18935943470702,0.1825356730847672
15,1.0188898883608533,5.612765539214311,0.27008345023556846,-3.1373488762567097,0.8647440741262873
16,1.1311451991451396,5.458330742224552,0.20733647271043426,-2.835651701622417,0.15057502250569454
17,1.2403118139896305,5.484528987744611,0.15062343867798592,-2.813586305200223,0.5137767946701675
18,1.3500023937445227,5.39015809967096,0.09435171257398145,-2.629516678270201,1.2439928749776747
19,1.457805555737942,5.159344392516366,0.041761379008577425,-2.257137780223412,0.4100010894238731
20,1.5609924435882692,5.238045658999327,-0.0033813765958908143,-2.3628124759441222,1.0339107677391173
21,1.6657533567682556,5.041476102106423,-0.05063762611477326,-2.068953949067072,1.0848858262621999
22,1.7665828788103841,4.828106091445965,-0.0920167050961147,-1.764190283571176,1.3869215324464128
23,1.8631450006393033,4.544356764261343,-0.12730051076753823,-1.3673816676282669,0.19628749922565053
24,1.95403213592453,4.588597648935197,-0.15464814412010358,-1.4705313608903974,0.23337421235669092
25,2.045804088903234,4.540197464449526,-0.18405877133791154,-1.4440830520816312,1.0507263685083283
26,2.136608038192225,4.313931186156331,-0.21294043237954416,-1.164224704464176,0.7754274594000673
27,2.2228866619153513,4.1396955121898635,-0.23622492646882767,-0.9709066352293687,0.5320164131927627
28,2.3056805721591487,4.016545744967707,-0.25564305917341507,-0.860118100511009,0.7519822283983363
29,2.3860114870585027,3.8363278278785176,-0.27284542118363525,-0.6729196892141414,0.31442445380011447
30,2.4627380436160733,3.7597590546291584,-0.28630381496791807,-0.6415401437646392,0.5308359349319811
31,2.5379332247086563,3.6255384642715014,-0.2991346178432108,-0.5314326603103503,0.7866765066874585
32,2.610443993994086,3.417772247010945,-0.3097632710494178,-0.3202629477174141,0.6125174863948794
33,2.678799438934305,3.24750736769574,-0.3161685300037661,-0.1666420259830299,0.09325210632546631
34,2.74374958628822,3.2238277574281087,-0.3195013705234267,-0.22429580088422763,0.2595812996217361
35,2.808226141436782,3.149830994158108,-0.32398728654111125,-0.2112612835782561,0.17659473983224602
36,2.8712227613199444,3.0996614072773228,-0.3282125122126764,-0.23351670064269509,0.18454452041132158
37,2.933215989465491,3.04615368443889,-0.33288284622553027,-0.25231080826281527,0.6012719900282232
38,2.9941390631542686,2.8587665100765176,-0.33792906239078657,-0.0827302646308812,0.28652789819137914
39,3.051314393355799,2.766090725069917,-0.3395836676834042,-0.049049739280975925,0.31078588163976095
40,3.1066362078571976,2.661742740959542,-0.3405646624690237,0.0006040011354984595,0.11102141337290582
41,3.1598710626763884,2.7065842076987456,-0.34055258244631376,-0.16099677261035286,0.2586644421099248
42,3.214002746830363,2.618335469162344,-0.3437725178985208,-0.13442416960613204,0.5564593175553205
43,3.26636945621361,2.4167589883621665,-0.34646100129064344,0.05115902040271475,0.2652094890931448
44,3.3147046359808536,2.5273697668054838,-0.3454378208825892,-0.20473240653672098,0.2881855482409823
45,3.365252031316963,2.421184804155449,-0.3495324690133236,-0.15441486055353976,0.6055608681215646
46,3.413675727400072,2.183158676468042,-0.35262076622439437,0.08035239185454526,0.14032005434170303
47,3.457338900929433,2.2498307200574854,-0.35101371838730344,-0.11503766054177869,0.39927022934413137
48,3.5023355153305826,2.0823886189597083,-0.353314471598139,0.019718856802698415,0.47975570564793973
49,3.5439832877097768,1.8642776805495667,-0.35292009446208505,0.2249497563374585,0.12458643334299684
50,3.5812688413207683,1.8045698222547044,-0.3484210993353359,0.20737363611717918,0.2643987385817335
51,3.6173602377658622,1.6680780501493104,-0.3442736266129923,0.2994334348902248,0.2531507419679041
52,3.6507217987688483,1.5268513894171911,-0.3382849579151878,0.39961401110504924,0.16589996455535486
53,3.681258826557192,1.4272651984985008,-0.33029267769308684,0.44295755662744063,0.11501152212651794
54,3.709804130527162,1.508556803079039,-0.32143352656053803,0.23226112537132967,0.18037867642540734
55,3.739975266588743,1.397764149542707,-0.3167883040531114,0.29705595293909726,0.14903355928906986
56,3.767930549579597,1.2996044438864294,-0.3108471849943295,0.34538320201880157,0.10276509614627728
57,3.793922638457326,1.379465865205147,-0.3039395209539535,0.14140772657661443,0.40012547857662034
58,3.8215119557614288,1.103632637752706,-0.3011113664224212,0.44820453759736506,0.13012504482898568
59,3.843584608516483,0.9952989170988824,-0.2921472756704739,0.5161987706504548,0.061636856996118226
60,3.8634905868584606,1.0578813619080645,-0.28182330025746477,0.3416280531043313,0.10583820880461484
61,3.884648214096622,0.9659523441970223,-0.27499073919537814,0.39231807540579333,0.046641412881516436
62,3.9039672609805627,0.9236035221176218,-0.2671443776872623,0.37362241624727227,0.15466901164019384
63,3.922439331422915,0.7674869387965477,-0.25967192936231687,0.5218812052372724,0.07778681331095248
64,3.9377890701988463,0.6754131017429246,-0.24923430525757143,0.5798732292585744,0.029268885846447986
65,3.951297332233705,0.7193000446466018,-0.23763684067239993,0.44355824439523994,0.03946239163051378
66,3.965683333126637,0.6706301948797919,-0.22876567578449514,0.4453018429253263,0.03928136258230275
67,3.9790959370242325,0.6184385797424664,-0.21985963892598862,0.4548776415631735,0.06215608818829321
68,3.9914647086190818,0.526813613399943,-0.21076208609472513,0.5248874694860637,0.01744819265908846
69,4.002000980887081,0.49884021201761725,-0.20026433670500385,0.5044127448144623,0.0417186429834184
70,4.011977785127433,0.579424725909066,-0.1901760818087146,0.32746686665630453,0.058925171268556176
71,4.023566279645615,0.48553964119727466,-0.1836267444755885,0.41018015683766007,0.007899760231635546
72,4.03327707246956,0.4728200385822269,-0.1754231413388353,0.37525541433915066,0.00436120341368633
73,4.042733473241205,0.4839257971377445,-0.16791803305205227,0.3075421489651682,0.038782507900398215
74,4.05241198918396,0.4104032912141725,-0.16176719007274892,0.3671385231178714,0.040031079022106585
75,4.060620055008243,0.32134283674464814,-0.1544244196103915,0.45163267401801444,0.0140785796432873
76,4.0670469117431365,0.283354051059752,-0.1453917661300312,0.4627172158129481,0.014752161053297576
77,4.072713992764331,0.3326194678192564,-0.13613742181377225,0.34700403172260186,0.013924241646166294
78,4.079366382120717,0.29557398714377336,-0.12919734117932022,0.3621572283981795,0.011636729562823604
79,4.0852778618635925,0.33374195757773367,-0.12195419661135663,0.2675039967184145,0.03918216090373568
80,4.091952701015147,0.22504251682882376,-0.11660411667698835,0.3935764354677084,0.014589008240003894
81,4.096453551351724,0.28523891721080363,-0.10873258796763419,0.2696910078699086,0.011977302036920113
82,4.10215832969594,0.24752353683696549,-0.10333876781023602,0.2940255548663427,0.01078275875210423
83,4.1071088004326795,0.2086833073928941,-0.09745825671290916,0.32164754462072076,0.01942418263026507
84,4.111282466580537,0.12523156885919712,-0.09102530582049474,0.41762375614030933,0.031036195379329716
85,4.113787097957721,0.3364505488177354,-0.08267283069768855,0.0753824387320221,0.018249185237946497
86,4.120516108934076,0.2852702123229688,-0.08116518192304811,0.12761260332664817,0.0195732437841266
87,4.1262215131805355,0.22084915069418892,-0.07861292985651515,0.2000897044393205,0.0026972330043708212
88,4.130638496194419,0.23340838200210642,-0.07461113576772874,0.15822063628004324,0.010544089605872171
89,4.135306663834461,0.19173094345896677,-0.07144672304212787,0.19864753907163812,0.017038566982774003
90,4.1391412827036405,0.27552726850256315,-0.0674737722606951,0.05228625687749025,0.0005645151626754603
91,4.144651828073692,0.2784726727620122,-0.0664280471231453,0.028055963618204522,0.03935233911254365
92,4.150221281528932,0.1422253511122261,-0.06586692785078122,0.212460713604766,0.0025750814152424436
93,4.153065788551176,0.12662626669404056,-0.061617713578685895,0.21645772410863426,0.008243481937329725
94,4.155598313885057,0.1864296631959897,-0.05728855909651321,0.10881872247626635,0.017924086257409492
95,4.1593269071489765,0.09589213893445996,-0.05511218464698788,0.22756858820903708,0.004012643630192118
96,4.161244749927666,0.13352453307119902,-0.050560812882807143,0.15501092128422636,0.005135395780007699
97,4.163915240589089,0.16988407609145512,-0.04746059445712262,0.08568275756342873,0.018031534328363692
98,4.167312922110918,0.06934678180160202,-0.045746939305854044,0.22237070808344983,0.002394455347739937
99,4.16869985774695,0.09939982441613623,-0.04129952514418505,0.16389339733036956,0.006436589241777681
100,4.170687854235273,0.041223901552902856,-0.038021657197577656,0.23894426234562954,0.005358672691024344
101,4.171512332266331,0.14214304703547515,-0.033242771950665065,0.07649927690823702,0.0070262057603628384
102,4.17435519320704,0.09554907653549574,-0.031712786412500325,0.1365800436100652,0.00024526417961512245
103,4.17626617473775,0.09365157654421054,-0.02898118554029902,0.13010286598029788,0.0034310059629383805
104,4.178139206268634,0.12768452970031716,-0.026379128220693063,0.0705555973239314,0.0012272688713642777
105,4.180692896862641,0.11891537938948513,-0.024968016274214435,0.07595018221293368,0.010950687585484726
106,4.183071204450431,0.2065772542307539,-0.023449012629955763,-0.06284147986597899,0.013778827295883627
107,4.187202749535046,0.14093006519311987,-0.024705842227275343,0.028708854600922706,0.021320406810131424
108,4.190021350838908,-0.004949303644201014,-0.02413166513525689,0.24019835129420264,0.0011306569467525536
109,4.189922364766024,0.1802751253643943,-0.019327698109372835,-0.04465141981343862,0.04013164253870791
110,4.193527867273311,-0.03909800401485314,-0.020220726505641606,0.2786648249450157,0.0055952832906382985
111,4.192745907193014,0.16769644156747265,-0.014647430006741291,-0.03740791882722433,0.0003339685019300924
112,4.196099836024364,0.16986925578891185,-0.015395588383285778,-0.04497298097515907,0.016884100957007545
113,4.199497221140142,0.0719402444884092,-0.01629504800278896,0.09737700348493716,0.0028405633128387275
114,4.20093602602991,0.108462525362422,-0.014347507933090217,0.03781032319289237,0.0014597012978997477
115,4.203105276537158,0.09574334853407965,-0.01359130146923237,0.05266910216295758,0.00733508712516345
116,4.20502014350784,0.16885740594457865,-0.012537919425973218,-0.060987574308717436,0.021592183921979594
117,4.208397291626731,0.04220305199739671,-0.013757670912147567,0.12529297257883448,0.0004529410163184788
118,4.209241352666679,0.05162576406000671,-0.011251811460570877,0.10711561441094454,0.0012265717571481028
119,4.21027386794788,0.030605345929416872,-0.009109499172351987,0.135336282919208,0.0028837633451333725
120,4.210885974866468,0.10727702488116317,-0.006402773513967827,0.01765538057552199,0.013061005955321064
121,4.213031515364091,0.22526727857961862,-0.0060496659024573875,-0.16120877473307338,0.033391778319239965
122,4.217536860935684,0.07587565678226832,-0.009273841397118855,0.061095966421935266,0.0042710996878849
123,4.219054374071329,0.12898713016054977,-0.00805192206868015,-0.021294288104399317,0.003419644197778094
124,4.22163411667454,0.10304227793165471,-0.008477807830768135,0.01525448916645409,0.0003560287839434676
125,4.223694962233173,0.09981550271524207,-0.008172718047439053,0.01760203240774672,0.002438153805354988
126,4.225691272287478,0.07629148174755923,-0.00782067739928412,0.05048413307245947,0.002649110240151367
127,4.227217101922429,0.10929091572386318,-0.00681099473783493,-0.0013127598585455091,0.0008935098020161434
128,4.229402920236907,0.10140814719419804,-0.00683724993500584,0.008508701706925463,0.003952336001147303
129,4.231431083180791,0.13938554710917134,-0.006667075900867331,-0.050466202464655344,0.00257123607803326
130,4.234218794122974,0.15777922462506325,-0.007676399950160438,-0.08001621133660011,0.0037606191538340217
131,4.237374378615475,0.134087346563737,-0.00927672417689244,-0.04673628073036255,0.0016997511999155377
132,4.24005612554675,0.14678662867378922,-0.010211449791499691,-0.06851170203877598,0.021844928390006523
133,4.2429918581202255,-0.0014039415940094446,-0.011581683832275211,0.150760450114093,0.0006392856660545899
134,4.2429637792883454,0.11323233797395778,-0.008566474829993351,-0.02458737570434691,0.00729512036264612
135,4.245228426047825,0.17683613425166583,-0.00905822234408029,-0.1225080822896122,0.018857886310277145
136,4.248765148732858,0.06954454679075278,-0.011508383989872533,0.03575961542826335,0.007802668712039986
137,4.250156039668672,-0.037249807295975504,-0.010793191681307266,0.1925571483522699,0.0026496928647809057
138,4.249411043522753,0.053615652510570266,-0.0069420487142618685,0.05309376071154365,0.0037730558239725607
139,4.250483356572964,-0.011983287303850093,-0.005880173500030996,0.14944885350362086,0.00014494853106213637
140,4.2502436908268875,0.015346906120334344,-0.0028911964299585782,0.10672551105433653,0.0022184808922179992
141,4.250550628949294,0.12254568864226165,-0.0007566862088718477,-0.05492200123790272,0.007590282157539474
142,4.2530015427221395,0.060872240722885995,-0.0018551262336299022,0.03736567843252296,0.0008224028406126216
143,4.254218987536597,0.07372184685297316,-0.001107812664979443,0.017545895603906743,5.086628958604945e-05
144,4.255693424473657,0.0744036769211097,-0.0007568947529013081,0.016197454272397827,0.0027079362415552786
145,4.25718149801208,0.03925494240737757,-0.00043294566745335155,0.0686980139046309,0.004890022850562838
146,4.257966596860228,0.1518384583660953,0.0009410146106392664,-0.10030453022854541,0.008929178845248596
147,4.261003366027549,0.0926761176842073,-0.001065075993931642,-0.01128440024257965,0.004382695286322148
148,4.262856888381234,0.1390851826940737,-0.001290763998783235,-0.08121109055602106,0.021085285646254025
149,4.265638592035115,-0.012830971721398604,-0.0029149858099036564,0.1462834667295419,0.0006720084760119444
150,4.265381972600688,0.09326803335035569,1.068352468718177e-05,-0.013721369339241368,0.005867898421179055
151,4.267247333267695,0.0314747999451228,-0.0002637438620976456,0.07897162171957622,0.0013503695530187815
152,4.267876829266597,0.06905039317020717,0.001315688572293879,0.02253069314773385,0.0008037614709908934
153,4.269257837130001,0.08022186199819574,0.001766302435248556,0.006160316738070128,0.0006331205209415536
154,4.270862274369965,0.08786937550776455,0.0018895087700099584,-0.004791642986167915,0.006560543789502216
155,4.27261966188012,0.014819871202211857,0.0017936759102866,0.10533793311666549,0.0003074033378238816
156,4.272916059304165,0.030089279055530258,0.00390043457261991,0.0829611986159291,0.004438181284037269
157,4.2735178448852755,0.15790999579282233,0.005559658544938492,-0.10762169319531179,0.008465560718591664
158,4.276676044801132,0.10385591201127525,0.0034072246810322566,-0.024907289428904397,0.0003094261462594121
159,4.278753163041357,0.10086830535879897,0.0029090788924541686,-0.019424183344886957,0.003726576438859018
160,4.280770529148533,0.1371887196345428,0.0025205952255564295,-0.07304930624293626,0.012464417202248656
161,4.283514303541224,0.04631403971995021,0.0010596091006977043,0.06400333481837922,0.0028383869522392935
162,4.2844405843356235,0.10255592664900913,0.002339675797065289,-0.020047923197815176,0.0004443870193783054
163,4.286491702868604,0.09825704203253671,0.0019387173331089854,-0.01291174986567037,0.0001904869647520395
164,4.2884568437092545,0.1001319783977563,0.001680482335795578,-0.015154166589239066,0.000793907701836759
165,4.29045948327721,0.10789668942630283,0.0013773990040107968,-0.02630715511209939,0.006317994371213457
166,4.292617417065736,0.16564491569845363,0.0008512559017688089,-0.11252445717004361,0.015523583853904446
167,4.295930315379705,0.07128933982964854,-0.0013992332416320635,0.029259124557933003,0.004268647133270748
168,4.297356102176297,0.013961935963555057,-0.0008140507504734034,0.11483877173928152,0.0007707616345103331
169,4.297635340895568,-0.02522811257970063,0.0014827246843122268,0.1733844941821546,0.001756253012806234
170,4.297130778643974,0.07352353402607148,0.004950414567955319,0.025693107998011416,0.008459658044206219
171,4.298601249324496,0.1839513656545918,0.005464276727915548,-0.1384911938521147,0.0010977309022698282
172,4.302280276637588,0.17784486703634908,0.0026944528508732538,-0.1277250933082864,0.008872391991275553
173,4.305837173978315,0.12749222275745814,0.00013995098470752539,-0.051404232883186185,0.01146684966528633
174,4.308387018433464,0.03810416585036404,-0.0008881336729561983,0.08271899675374017,0.005076703535784257
175,4.309149101750472,0.1564253965833453,0.0007662462621186052,-0.09502389061406752,0.005766199027574305
176,4.3122776096821385,0.11942997653113363,-0.0011342315501627453,-0.03930550044766411,0.006060172359463713
177,4.314666209212761,0.06918958237092368,-0.0019203415591160275,0.0357215783134151,0.001573880960368637
178,4.316050000860179,0.04753343333217993,-0.0012059099928477253,0.0676411619039449,0.0010886317643603286
179,4.317000669526823,0.026564336308535327,0.00014691324523117264,0.09874024711720346,0.004048012700528273
180,4.317531956252993,0.15374289119742743,0.0021217181875752417,-0.09198439066347315,0.017249946932062932
181,4.320606814076942,0.04118900809859816,0.0002820303743057786,0.07746983865219183,0.002399176608582422
182,4.3214305942389135,0.09353659067142613,0.0018314271473496152,-0.0009686151552639882,0.00854674922919573
183,4.323301326052342,0.1826969893456014,0.0018120548442443355,-0.1341705495948996,0.009981343128181802
184,4.3269552658392545,0.1275295529216731,-0.0008713561476536564,-0.05088678698478738,0.008077989904351702
185,4.329505856897688,0.19048074991608577,-0.001889091887349404,-0.14556972530408416,0.030165798106611158
186,4.33331547189601,0.030443607054769284,-0.004800486393431088,0.09393016796388076,0.0009597484181087466
187,4.333924344037105,0.0035388014583786834,-0.0029218830341534727,0.13287557377107323,0.0011216378901252528
188,4.333995120066272,0.11782294829720164,-0.00026437155873200793,-0.03940894711025819,0.004264289460592862
189,4.3363515790322165,0.08197201397880613,-0.0010525505009371717,0.014289727250694516,0.0048410209904744105
190,4.337991019311793,0.024823486822642016,-0.0007667559559232813,0.09970302071027246,0.004070966708256919
191,4.338487489048245,0.1601305094289827,0.0012273044582821679,-0.1034828797664541,0.009808427977308392
192,4.341690099236825,0.09854567207800251,-0.0008423531370469141,-0.010744865892657066,0.007321394802400358
193,4.343661012678385,0.025714363160815476,-0.0010572504549000554,0.09825440693154872,0.004250519545872808
