,X,v,theta,theta_dot,energy
0,0.0,-2.0,0.17453292519943295,0.0,0.9892455260730034
1,-0.04,-2.4839435743418825,0.17453292519943295,0.7659396402825661,0.43316922995274226
2,-0.08967887148683765,-2.6584240222896844,0.18985171800508427,1.0747367513487012,0.09265675166004701
3,-0.14284735193263134,-2.695400273614515,0.2113464530320583,1.1846862612246687,0.3245802972247115
4,-0.19675535740492164,-2.578613336905236,0.23504017825655166,1.0750780500567132,0.2367733331494536
5,-0.24832762414302637,-2.4906878423610466,0.2565417392576859,1.015283402805982,0.16660009118066102
6,-0.2981413809902473,-2.4278034331269907,0.2768474073138056,0.9986424684126827,0.24776174079890262
7,-0.3466974496527871,-2.3304594297217287,0.29682025668205925,0.9385438680628928,0.40577178390176405
8,-0.3933066382472217,-2.1623838111110554,0.3155911340433171,0.7834444353771131,0.2838110054562703
9,-0.43655431446944276,-2.037232524127843,0.33126002275085936,0.6962400304863244,0.3271582179344254
10,-0.47729896495199964,-1.8836751966111969,0.34518482336058587,0.5740456818909907,0.3687062306450742
11,-0.5149724688842235,-1.6962229305170582,0.3566657369984057,0.4089341303284419,0.26248919861313613
12,-0.5488969274945648,-1.5496269811881,0.36484441960497455,0.30552958375373007,0.29491911355831946
13,-0.5798894671183268,-1.3688189642511723,0.37095501128004915,0.15706929189309396,0.20776057855858104
14,-0.6072658464033502,-1.2262247602476202,0.37409639711791104,0.06430319704254624,0.13302734283389792
15,-0.6317903416083026,-1.1260063052749465,0.37538246105876194,0.03180932832328829,0.0906531357912687
16,-0.6543104677138015,-1.0529772084423958,0.3760186476252277,0.03768222961558223,0.26241359388645946
17,-0.6753700118826494,-0.8167054276093118,0.37677229221753933,-0.18400166994256031,0.3905665926621379
18,-0.6917041204348356,-0.3639302279293221,0.3730922588186881,-0.707357167256188,0.0903070382054992
19,-0.6989827249934221,-0.14708600275560738,0.3589451154735644,-0.9030846750750524,0.016494141054542305
20,-0.7019244450485342,-0.06557966665487763,0.34088342197206334,-0.9142740140231082,0.027430221814412074
21,-0.7032360383816318,0.18332026693678102,0.32259794169160116,-1.1678512198527373,0.0014460328007360143
22,-0.6995696330428962,0.16891130544421182,0.29924091729454644,-1.0541454302059836,0.0063287838851513204
23,-0.6961914069340119,0.21510420874294356,0.2781580086904268,-1.0336858905059556,0.03209836026811535
24,-0.691889322759153,0.3950429479776806,0.25748429088030766,-1.2124915335786246,0.0016684410927455028
25,-0.6839884637995994,0.39663431990738585,0.23323446020873517,-1.1399332149572694,0.023983587235958708
26,-0.6760557774014517,0.46105907473267044,0.21043579590958977,-1.1660028628136416,0.016906122199060996
27,-0.6668345959067983,0.4182263873573153,0.18711573865331693,-1.0417586529639797,0.030504928141811546
28,-0.6584700681596519,0.3359244445962014,0.16628056559403734,-0.8657690533078481,0.012411130209312404
29,-0.6517515792677279,0.37438828966805826,0.14896518452788038,-0.8740075167542282,0.017261873669499862
30,-0.6442638134743667,0.4225798443502154,0.1314850341927958,-0.9018603122978661,0.04946409532366307
31,-0.6358122165873624,0.547027403197597,0.11344782794683848,-1.0483750458586785,0.04855036449194627
32,-0.6248716685234105,0.4508228177735475,0.09248032702966491,-0.8717136549042184,0.05932806415414502
33,-0.6158552121679395,0.5901993057758084,0.07504605393158054,-1.0527345230090457,0.04354463539771971
34,-0.6040512260524233,0.5109243755695181,0.05399136347139962,-0.9121139868333801,0.07362320716678429
35,-0.593832738541033,0.35724311075088866,0.03574908373473202,-0.6660622514687085,0.036975087204965035
36,-0.5866878763260153,0.24643436195058477,0.02242783870535785,-0.4894473348055881,0.03761981380203821
37,-0.5817591890870035,0.08241378386087814,0.012638892009246089,-0.23688511101265358,0.006491234632083305
38,-0.5801109134097859,-0.006156371041774078,0.007901189788993016,-0.10032475444790115,0.00048245048007655733
39,-0.5802340408306215,-0.05019086704793194,0.005894694700034993,-0.03195214656528783,0.0025251648501072805
40,-0.5812378581715801,-0.002571759864156621,0.005255651768729237,-0.10164653615812608,0.0004920335500259989
41,-0.5812892933688633,-0.06939218033911912,0.003222721045566715,0.00012786478514115185,0.005255283281648247
42,-0.5826771369756456,0.00445366478047797,0.003225278341269538,-0.10969284932904623,7.483424817545892e-05
43,-0.582588063680036,-0.1327342570587574,0.0010314213546886134,0.09703619330425907,0.017816265132238406
44,-0.5852427488212112,0.0027032900813599714,0.002972145220773795,-0.10581678151951825,0.00022708064658481908
45,-0.585188683019584,-0.10250724523784242,0.00085580959038343,0.0528721338236532,0.0006423949517421318
46,-0.5872388279243409,-0.09625875848332656,0.001913252266856494,0.04375101511307944,0.0008470970408364261
47,-0.5891640030940074,-0.08751951088609633,0.002788272569118083,0.031204663533246173,0.00115874851661748
48,-0.5909143933117293,-0.07442975225549109,0.0034123658397830067,0.01238985298481323,0.005173529726885435
49,-0.5924029883568391,-0.006148169173561924,0.0036601628994792712,-0.08902869171336014,0.000510757949436319
50,-0.5925259517403104,-0.055077951689717415,0.0018795890652120685,-0.014558424075422988,3.577888423700906e-05
51,-0.5936275107741048,-0.054478671000100086,0.0015884205837036088,-0.014904744662173655,0.0005066858065838987
52,-0.5947170841941068,-0.06346377753030022,0.0012903256904601356,-0.0009601064142454995,0.00656546339168577
53,-0.5959863597447128,-0.1643418251803298,0.0012711235621752257,0.15073619474159236,0.011174362774038004
54,-0.5992731962483194,-0.09513784199845744,0.004285847457007073,0.047304014057931776,0.0034339498105005043
55,-0.6011759530882885,-0.0591709720221934,0.005231927738165709,-0.005385760119585421,0.00875774675383397
56,-0.6023593725287324,0.08455631024171961,0.005124212535774,-0.21943555309214935,0.00909192253067859
57,-0.600668246323898,-0.03444843743583835,0.0007355014739310129,-0.03942426325827453,0.0006871439438720593
58,-0.6013572150726147,-0.05295721765725345,-5.298379123447772e-05,-0.011444863021727755,0.0011683736082404679
59,-0.6024163594257598,-0.0316413636288923,-0.0002818810516690328,-0.04343422125400542,0.0054221961924983565
60,-0.6030491866983376,-0.18900295095889982,-0.0011505654767491413,0.19252527733531155,0.01358933680347996
61,-0.6068292457175156,-0.11543444867192335,0.00269994006995709,0.08183433077184543,0.004650709522289928
62,-0.6091379346909541,-0.15608798524992112,0.004336626685393999,0.143608194791798,0.011865310653631628
63,-0.6122596943959525,-0.07875063807300844,0.00720879058122996,0.02887822909779597,0.0007729637457775416
64,-0.6138347071574127,-0.08859222737811731,0.007786355163185879,0.04575959555592131,0.001775317939308959
65,-0.615606551704975,-0.06868349043514609,0.008701547074304304,0.018186560683833123,0.008400680598572685
66,-0.6169802215136779,0.051971566001698055,0.009065278287980967,-0.16023094973648502,0.0025805502658109857
67,-0.615940790193644,-0.004494678137333695,0.005860659293251266,-0.07286990845726793,0.0006895234695481531
68,-0.6160306837563907,-0.0907465593565831,0.004403261124105907,0.05822871545539829,0.0027206683258144807
69,-0.6178456149435223,-0.06068129535714913,0.005567835433213873,0.01442581123770871,0.003539193686069082
70,-0.6190592408506653,-0.11828434772063894,0.005856351657968047,0.10246598564086518,0.008491203872835652
71,-0.6214249278050781,-0.045462304708377005,0.00790567137078535,-0.00504344816201617,0.006980026364729608
72,-0.6223341738992456,0.10346175738442909,0.007804802407545027,-0.22609831739029446,0.005901101184851432
73,-0.6202649387515571,0.041568139041938706,0.003282836059739137,-0.13096612893490497,0.0004246683239104311
74,-0.6194335759707184,0.0298881348492469,0.0006635134810410374,-0.11248106498446156,0.0006761803374586596
75,-0.6188358132737334,0.05650540814979471,-0.0015861078186481937,-0.1522118931974773,0.002532996565870136
76,-0.6177057051107375,0.00669188255835574,-0.00463034568259774,-0.07795801430179529,3.119405833512369e-05
77,-0.6175718674595704,-0.00290801144238248,-0.006189505968633645,-0.06491964443364594,0.0004780194114266939
78,-0.617630027688418,-0.08241856103961803,-0.007487898857306564,0.05252419229765386,0.004007890072970099
79,-0.6192783989092103,-0.03345371847699841,-0.006437415011353487,-0.023122434204322292,0.0013222178852289256
80,-0.6199474732787503,-0.07074657716314564,-0.006899863695439933,0.030923107816416787,0.0011112633872871732
81,-0.6213624048220132,-0.08628276142295811,-0.006281401539111597,0.05219828564144377,0.007094833146463363
82,-0.6230880600504723,-0.16868293718495803,-0.005237435826282721,0.1739493909977215,0.0040097428874408285
83,-0.6264617187941716,-0.14427641637640048,-0.0017584480063282913,0.13580031280705512,0.011850545353771922
84,-0.6293472471216995,-0.06053510001186252,0.0009575582498128113,0.009671549017635755,0.007274363581351029
85,-0.6305579491219367,0.05754556003684519,0.0011509892301655264,-0.16716783777031474,0.0013644986269134235
86,-0.6294070379211998,0.03087648643955894,-0.002192367525240768,-0.12682586311334476,0.001977224845699545
87,-0.6287895081924086,0.10772461449508998,-0.004728884787507663,-0.24274233370635692,0.018521972858131112
88,-0.6266350159025068,-0.07909346033381189,-0.009583731461634801,0.036091358328433326,0.0014068093819010789
89,-0.628216885109183,-0.061235774907092144,-0.008861904295066135,0.006488486404354347,0.0011321162369995258
90,-0.6294416006073249,-0.07923277588009195,-0.008732134566979048,0.030877562086151816,0.007920116623685327
91,-0.6310262561249267,-0.1783876507885963,-0.008114583325256011,0.17703698911527957,0.0028509736044268364
92,-0.6345940091406986,-0.16194293253106032,-0.00457384354295042,0.14998506252821517,0.011382486741134122
93,-0.6378328677913199,-0.09029120359595748,-0.0015741422923861168,0.041163888028566326,0.004756534710564789
94,-0.6396386918632391,-0.03778599601891012,-0.0007508645318147903,-0.03805662340192299,0.00040346150409969794
95,-0.6403944117836172,-0.02781413601818053,-0.0015119969998532502,-0.05323516333804504,0.0024891883799330558
96,-0.6409506945039808,-0.10811537400189467,-0.0025767002666141512,0.06677202900437172,0.0056182877165306885
97,-0.6431130019840187,-0.055915902873850024,-0.0012412596865267168,-0.012284466798686042,0.0006525478284980211
98,-0.6442313200414956,-0.044625149089595424,-0.0014869490225004377,-0.02958551468223377,0.0042708053989820435
99,-0.6451238230232875,-0.1352421516789136,-0.002078659316145113,0.10590267608342505,0.0009429365976578632
100,-0.6478286660568658,-0.12815916130596303,3.939420552338769e-05,0.0946670880784078,0.00478473546038558
101,-0.6503918492829851,-0.09047055038874194,0.0019327359670915439,0.03814575364286387,0.0010268391264270083
102,-0.65220126029076,-0.10178778297944634,0.0026956510399488215,0.05568979484311845,0.009458093558829346
103,-0.6542370159503489,-0.008861145337155235,0.0038094469368111904,-0.08290713473372777,4.5730267211311906e-05
104,-0.654414238857092,-0.005383199773282812,0.002151304242136635,-0.08700404053532639,0.0008961782173487876
105,-0.6545219028525577,0.08821703347904211,0.0004112234314301074,-0.2267715825604904,0.009250938216877723
106,-0.6527575621829769,-0.027632655594896402,-0.0041242082197797,-0.05287616395719552,0.003731333147764214
107,-0.6533102152948748,-0.14877172717426282,-0.005181731498923611,0.12761838428538871,0.0018881484305493005
108,-0.65628564983836,-0.16158188065671417,-0.0026293638132158367,0.14530993429863687,0.00991091576440773
109,-0.6595172874514943,-0.09915311027019338,0.0002768348727569007,0.05089407035182694,0.0064092971188814485
110,-0.6615003496568982,-0.03458676660296803,0.0012947162797934395,-0.045874051986305536,0.004826698624144468
111,-0.6621920849889575,-0.1630133819543233,0.0003772352400673287,0.1471463560604516,0.012569004959213783
112,-0.665452352628044,-0.08457675797808227,0.003320162361276361,0.029602335625565995,0.00022229411221206036
113,-0.6671438877876057,-0.08201871199877324,0.003912209073787681,0.026741413746335024,0.00895441082923318
114,-0.6687842620275811,0.026039718910063125,0.004447037348714381,-0.13419480567832298,0.0031987799977689618
115,-0.6682634676493798,-0.1305314249134538,0.0017631412351479217,0.1019670124522053,0.012061870550256277
116,-0.6708740961476489,-0.03708571633063287,0.0038024814841920275,-0.03768296929882492,0.0009496150889685536
117,-0.6716158104742616,-0.06101877383829898,0.003048822098215529,-0.0006657157083009915,0.005116594067939195
118,-0.6728361859510276,0.020704487788637004,0.003035507784049509,-0.12235368610825131,0.0003321930995465668
119,-0.6724220961952548,-0.0007410564826383984,0.0005884340618844829,-0.08929307998762791,0.0005186522812007618
120,-0.6724369173249076,-0.10617030738080477,-0.0011974275378680752,0.06902376858480692,0.0013342243190387945
121,-0.6745603234725237,-0.11878680008401632,0.00018304783382806322,0.08759645046016634,0.0029505813052353156
122,-0.676936059474204,-0.14386335044927026,0.00193497684303139,0.12526509144072143,0.01991939396850785
123,-0.6798133264831894,-0.2845411276268124,0.004440278671845819,0.3368502450065308,0.06604795555663334
124,-0.6855041490357257,-0.04526665797490434,0.011177283571976435,-0.020752483672330846,0.0027314588865571705
125,-0.6864094821952237,0.01224065764591642,0.010762233898529818,-0.10372201584885964,0.00042402305514849264
126,-0.6861646690423053,0.06705110736128485,0.008687793581552625,-0.18276889343881206,0.0011047854968165491
127,-0.6848236468950797,0.08527489419312918,0.005032415712776383,-0.20754936289307319,0.0029209718839546444
128,-0.6831181490112171,0.04762790347919084,0.0008814284549149192,-0.1496000679093943,0.001202025057320452
129,-0.6821655909416333,0.01889210018916807,-0.002110572903272967,-0.10623723978615071,0.0004968534320673912
130,-0.68178774893785,-0.015546074509853684,-0.0042353176989959815,-0.05520060076456137,0.0009822745640583447
131,-0.6820986704280471,0.037591735671842263,-0.005339329714287209,-0.13615178083283416,0.0015147593435619945
132,-0.6813468357146102,-0.009391095680274485,-0.008062365330943892,-0.06724829383518585,0.002113411662945303
133,-0.6815346576282156,-0.17491671689556484,-0.009407331207647609,0.17866175871400808,0.01416034202109068
134,-0.6850329919661269,-0.09195708987937778,-0.005834096033367447,0.05146210988117081,0.005538839777031072
135,-0.6868721337637145,-0.15217088561596787,-0.004804853835744031,0.14006605187856197,0.0006683090393319606
136,-0.6899155514760338,-0.15657387087634375,-0.0020035327981727915,0.14525783193948452,0.01468182544460404
137,-0.6930470288935606,-0.06103534609160868,0.0009016238406168988,0.0013612941427273983,0.0016892645410273388
138,-0.6942677358153928,-0.03401909762317397,0.0009288497234714469,-0.03889798471505014,0.00019347003217765486
139,-0.6949481177678563,-0.03930668606874595,0.00015089002917044404,-0.03069352368870578,0.0005080465108286327
140,-0.6957342514892312,-0.05148655638522639,-0.0004629804446036716,-0.012379356753558984,0.006646738702712185
141,-0.6967639826169357,0.0731063612068692,-0.0007105675796748513,-0.19940482935760118,0.00641314990330592
142,-0.6953018553927983,-0.024579956762322663,-0.004698664166826874,-0.05308429624648345,0.0019735321619879028
143,-0.6957934545280448,-0.09584237750652146,-0.005760350091756543,0.052426752720795,0.0033862955777951022
144,-0.6977103020781752,-0.060410787752339434,-0.004711815037340643,-0.002413283715644171,0.003493637190767738
145,-0.698918517833222,-0.11666168383008592,-0.004760080711653527,0.08057685527942884,0.0005280333824412498
146,-0.7012517515098238,-0.12115236581157045,-0.00314854360606495,0.0859133434938501,0.011678910232491574
147,-0.7036747988260552,-0.21828693697930684,-0.0014302767361879481,0.2306888077602185,0.02851370599405562
148,-0.7080405375656413,-0.08439691758704093,0.003183499419016422,0.029433482877974787,0.0035411089674370197
149,-0.7097284759173822,-0.042848809930592216,0.003772169076575918,-0.03195241555147022,0.0016871701812457027
150,-0.710585452115994,-0.08005807195463834,0.003133120765546514,0.0249700954683165,0.0011788651514340947
151,-0.7121866135550867,-0.09467556739020846,0.003632522674912844,0.04781736700089376,0.008826623961097077
152,-0.7140801249028909,-0.0016342531690797663,0.004588870014930719,-0.09067572423852455,0.0001366826935864958
153,-0.7141128099662725,0.02146749859815348,0.0027753555301602284,-0.12397886398774369,0.0016663737406033782
154,-0.7136834599943094,-0.08125789426823662,0.00029577825040535445,0.030924585351266104,0.004405903727100055
155,-0.7153086178796741,-0.13509209915467446,0.0009142699574306765,0.11176284795301925,0.0029225572117594525
156,-0.7180104598627677,-0.11317433519036248,0.0031495269164910616,0.07915501107721021,0.016982688777844923
157,-0.720273946566575,0.037985189563369506,0.004732627138035266,-0.1466571920992924,0.0018976699529133082
158,-0.7195142427753075,-0.021196309710804224,0.0017994832960494178,-0.05649455015134644,0.0009202959396909403
159,-0.7199381689695236,-0.05900364616577995,0.000669592293022489,0.0007454105155684093,0.002098102791138476
160,-0.7211182418928391,-0.02430174101824089,0.0006845005033338571,-0.05111057541725321,0.0018667268451909738
161,-0.7216042767132039,-0.09271344858250957,-0.00033771100501120714,0.05170820502115153,0.0035796474288180835
162,-0.7234585456848541,-0.05406075276969347,0.0006964530954118236,-0.00637012242544073,0.00230576754844185
163,-0.724539760740248,-0.09546019022047579,0.000569050646903009,0.05593377588372959,0.008916563251727613
164,-0.7264489645446575,-0.0018469930800644185,0.0016877261645776007,-0.08431869621045429,0.0003714782547794353
165,-0.7264859044062587,-0.06568095111854813,1.352240368514843e-06,0.01192829573470601,0.0012953648665027897
166,-0.7277995234286296,-0.046279761127992716,0.00023991815506263506,-0.017173091692432155,0.002307238751337191
167,-0.7287251186511895,-0.09411464247899216,-0.00010354367878600805,0.05464976420592106,0.004380815722213481
168,-0.7306074115007694,-0.047469695726474165,0.0009894516053324132,-0.015348097389294005,0.001549692904041457
169,-0.7315568054152989,-0.016095489570574703,0.0006824896575465332,-0.06211848486179145,0.0004021774363068667
170,-0.7318787152067103,0.004634037700671761,-0.0005598800396892959,-0.09301211658318173,3.696108578497443e-05
171,-0.7317860344526969,0.09341080141598115,-0.0024201223713529304,-0.2263418460078653,0.01168447973615111
172,-0.7299178184243772,-0.043695167055746165,-0.006946959291510237,-0.021395010854051516,0.00038057346515143114
173,-0.7307917217654921,-0.03528326602502208,-0.007374859508591267,-0.03605494753497701,0.00210285600954883
174,-0.7314973870859925,-0.09074206502459473,-0.008095958459290807,0.04496279969048282,0.0003645123976732545
175,-0.7333122283864845,-0.09463529909748578,-0.00719670246548115,0.04842227363021,0.000392833173611457
176,-0.7352049343684341,-0.09038591703988652,-0.0062282569928769505,0.039932553346908865,0.003622765908765497
177,-0.7370126527092319,-0.1302013439947512,-0.005429605925938773,0.09782343969979396,0.010861020400939867
178,-0.7396166795891269,-0.045863609374155734,-0.003473137131942894,-0.0302775937880167,0.002432973574637102
179,-0.7405339517766101,-0.0960601602377525,-0.004078689007703228,0.04399567811515903,0.008097732182927612
180,-0.7424551549813652,-0.17999259660592298,-0.003198775445400047,0.1686941542189634,0.012848459080937348
181,-0.7460550069134836,-0.1072057971111913,0.00017510763897922053,0.058574075174101736,0.014805212116448628
182,-0.7481991228557074,-0.24537214741327726,0.0013465891424612553,0.2658750790954141,0.036083510932268685
183,-0.753106565803973,-0.09448960961164246,0.006664090724369537,0.03994737467790932,0.012436026572951626
184,-0.7549963579962058,0.03633274856882321,0.007463038217927723,-0.15432257706159855,0.0006255120363011143
185,-0.7542697030248293,0.05704070992540272,0.0043765866766957515,-0.18318954120455405,0.0005573946993520475
186,-0.7531288888263212,0.06814119347995748,0.0007127958526046705,-0.19855339469317548,0.0057175665573904215
