,X,v,theta,theta_dot,energy
0,0.0,-2.0,0.3490658503988659,0.0,0.5902065055049475
1,-0.04,-2.290032380583911,0.3490658503988659,0.5093658538732535,0.1880075465047883
2,-0.08580064761167822,-2.3746930419520753,0.35925316747633096,0.7292522741487781,0.5414797373722768
3,-0.13329450845071972,-2.1558137577268965,0.3738382129593065,0.5252564441692644,0.35973384727414726
4,-0.17641078360525764,-1.997645293583278,0.3843433418426918,0.411756414483428,0.10466083094564041
5,-0.2163636894769232,-1.951481853218007,0.39257847013236036,0.45779848225556125,0.2738864282367163
6,-0.2553933265412833,-1.8196006646850083,0.4017344397774716,0.38750202441299064,0.3336137568065138
7,-0.2917853398349835,-1.6461669524097655,0.4094844802657314,0.26302204769014487,0.3185809626765624
8,-0.32470867888317884,-1.4634238337038303,0.4147449212195343,0.1286215993779693,0.512115715498631
9,-0.35397715555725545,-1.1300072009819404,0.41731735320709373,-0.2106331161609309,0.16811775089215056
10,-0.37657729957689423,-0.9929208331533683,0.41310469088387514,-0.27945445214353515,0.29429408367060644
11,-0.3964357162399616,-0.7156231104145852,0.40751560184100444,-0.5423834245615149,0.12123755260159233
12,-0.4107481784482533,-0.562285890877385,0.3966679333497741,-0.6370327800895019,0.043038152867018044
13,-0.42199389626580097,-0.49668010882096336,0.3839272777479841,-0.6142142968851135,0.13738623376402662
14,-0.4319274984422202,-0.2476166720903559,0.3716429918102818,-0.8504899836302795,0.038064429930835114
15,-0.43687983188402735,-0.12254566838926881,0.35463319213767625,-0.9185238157424802,0.02855808770849708
16,-0.4393307452518127,0.043768499083025714,0.33626271582282663,-1.0503810067749846,6.713921776075558e-05
17,-0.4384553752701522,0.08406845115357067,0.31525509568732696,-1.010436741069323,0.0014557612324518406
18,-0.4367740062470808,0.11520594260498133,0.2950463608659405,-0.9636838219494428,0.01119874224154002
19,-0.43446988739498116,0.25989241935539825,0.27577268442695163,-1.0858448356246733,0.025924118312604
20,-0.4292720390078732,0.37497950970819055,0.25405578771445814,-1.1718992291774122,0.007812542476512054
21,-0.4217724488137094,0.34837261045360096,0.2306178031309099,-1.059378465761133,0.015597241074269717
22,-0.4148049966046374,0.2951446645288424,0.20943023381568723,-0.9144481024600832,0.03573582115114613
23,-0.4089021033140605,0.4290137290986281,0.19114127176648557,-1.0497406767924131,0.03422976011771035
24,-0.40032182873208794,0.5137231926219568,0.17014645823063732,-1.1186368115063037,0.0054405113031503055
25,-0.3900473648796488,0.5001139862660396,0.14777372200051125,-1.0487357297168745,0.020806340416529328
26,-0.380045085154328,0.45343704869010637,0.12679900740617375,-0.9361958724997893,0.010123020882960018
27,-0.3709763441805259,0.42775700241675696,0.10807508995617797,-0.8608059575509119,0.01638247112863378
28,-0.36242120413219076,0.38522745947594755,0.09085897080515973,-0.7656715887846601,0.01221462474855948
29,-0.3547166549426718,0.35000987335154204,0.07554553902946652,-0.6863873108099753,0.005381303745232001
30,-0.34771645747564095,0.3325087235244603,0.06181779281326702,-0.6380211931860685,0.007689805706806628
31,-0.34106628300515174,0.3563571310505586,0.04905736894954565,-0.6555626169203315,0.03873179814537894
32,-0.3339391403841406,0.23999229114490842,0.035946116611139015,-0.4668082677866945,0.024855297588470788
33,-0.3291392945612424,0.12865980150179937,0.026609951255405124,-0.28935153064621266,0.0015472812610802702
34,-0.32656609853120644,0.14134824092278142,0.02082292064248087,-0.3005550493295516,0.0019193368743202308
35,-0.3237391337127508,0.12638726447864593,0.014811819655889836,-0.27199695345756464,0.011930079908706672
36,-0.3212113884231779,0.024102294341147662,0.009371880586738542,-0.11423181241654964,0.000235465034900725
37,-0.320729342536355,0.036116037531495504,0.00708724433840755,-0.1294963432550203,0.0017322764550049656
38,-0.3200070217857251,0.09192000279653767,0.004497317473307144,-0.21111655653475234,0.011290894412475955
39,-0.3181686217297943,-0.041951126075617406,0.0002749863426120972,-0.008989687087564951,0.002591237545504416
40,-0.3190076442513067,0.017725092316051648,9.519260086079815e-05,-0.09842316530693518,0.0008310130704688415
41,-0.31865314240498566,-0.04345846267718246,-0.0018732707052779053,-0.006619846608290306,0.0013944985084556973
42,-0.3195223116585293,-0.07452176536094934,-0.0020056676374437116,0.039424284397955825,0.0004825610035499679
43,-0.3210127469657483,-0.0809661605643901,-0.001217181949484595,0.04850119187014261,0.003404681108676626
44,-0.3226320701770361,-0.03877534505725464,-0.0002471581120817428,-0.015142835915074204,0.003371523678319879
45,-0.3234075770781812,0.04457809285652702,-0.000550014830383227,-0.14024565345109208,0.0027734558711725713
46,-0.32251601522105067,-0.02624063998196243,-0.0033549278994050684,-0.03417927461320362,0.0012018975784496408
47,-0.3230408280206899,0.01599543455902125,-0.004038513391669141,-0.09851937683471661,0.00013417640105406248
48,-0.32272091932950947,0.004687523370510458,-0.006008900928363474,-0.08274496808200726,9.160730814998106e-05
49,-0.32262716886209925,-0.09169152129756186,-0.007663800290003619,0.06005438272547031,0.008060901463419375
50,-0.3244609992880505,-0.003181272203546484,-0.0064627126354942135,-0.07496022725410009,0.001191529123578693
51,-0.3245246247321214,-0.17952784283143775,-0.007961917180576216,0.1876540803637389,0.005742459438574577
52,-0.32811518158875014,-0.14665118850525613,-0.004208835573301439,0.13599988303720123,0.0029460416663522034
53,-0.33104820535885526,-0.16705218129311827,-0.001488837912557414,0.16536370717218005,0.003589987800097038
54,-0.3343892489847176,-0.14507698952638737,0.001818436230886187,0.13196323787078487,0.005258207637881715
55,-0.3372907887752454,-0.10821775301078508,0.004457700988301885,0.07720909446671127,0.005374059226538554
56,-0.3394551438354611,-0.1583538767537238,0.0060018828776361105,0.15372309263765546,0.023726589375870074
57,-0.3426222213705356,-0.00551426422607057,0.00907634473038922,-0.07376765393419393,0.0015935761522584667
58,-0.342732506655057,0.16968663639058948,0.007600991651705341,-0.3338897714283121,0.023452527210632748
59,-0.3393387739272452,0.021494717213701386,0.0009231962231390986,-0.10937364395397764,0.002778601479193138
60,-0.33890887958297117,-0.14258070518752794,-0.0012642766559404542,0.1370108044188848,0.011978203570765046
61,-0.34176049368672173,-0.05685816969297673,0.0014759394324372417,0.008055406703101509,0.002915391224297093
62,-0.3428976570805813,-0.10722775445528399,0.001637047566499272,0.08404362758844783,0.018783108467101725
63,-0.34504221216968695,0.0699599302457595,0.003317920118268229,-0.1812562515563729,0.006857021573563669
64,-0.3436430135647718,-0.038474793133732976,-0.00030720491285922934,-0.017629595046673774,0.0017069455452585701
65,-0.34441250942744644,0.003929723760473666,-0.0006597968137927048,-0.08132668562950354,3.6405454007744414e-06
66,-0.344333914952237,0.019178783284905125,-0.0022863305263827755,-0.10439425018653087,0.00018857386935147876
67,-0.3439503392865389,0.006465302202417672,-0.004374215530113393,-0.08599625899487252,0.00015942713434248716
68,-0.3438210332424905,0.06736992971338404,-0.006094140710010843,-0.17863834152654534,0.007428074111129602
69,-0.34247363464822284,-0.054852570627874436,-0.00966690754054175,0.002900338342243819,0.005568376183307687
70,-0.34357068606078034,-0.15399119634975353,-0.009608900773696872,0.14875930211525737,0.0031239492395186063
71,-0.3466505099877754,-0.13315305568208338,-0.006633714731391725,0.11467856075211039,0.002527708407912136
72,-0.3493135711014171,-0.15233297899716605,-0.004340143516349516,0.14149751487404924,0.0010793707544337545
73,-0.3523602306813604,-0.1450533168642478,-0.0015101932188685313,0.12930212633108046,0.02060601585978009
74,-0.35526129701864534,-0.0005855581532023812,0.001075849307753078,-0.08784326125918121,0.0003908423616151425
75,-0.35527300818170937,-0.08388484437995786,-0.0006810159174305461,0.03742189540524404,0.00434721940216901
76,-0.35695070506930854,-0.1354811969304257,6.742199067433479e-05,0.11461618761957727,0.007567661088426263
77,-0.35966032900791706,-0.07880751830072616,0.0023597457430658804,0.029625491933488388,0.002224704749098158
78,-0.3612364793739316,-0.05082151192173415,0.0029522555817356484,-0.011659636152494865,0.0013296961262775095
79,-0.3622529096123663,-0.07612628365753396,0.002719062858685751,0.027165317917777536,0.004109436978393863
80,-0.363775435285517,-0.022631772062931536,0.003262369217041302,-0.052276749353051814,0.0005577937409960063
81,-0.3642280707267756,-0.0009179514576458936,0.0022168342299802657,-0.08388817208667365,0.0003306927625805738
82,-0.3642464297559285,-0.06914330710044085,0.0005390707882467927,0.019101358644752764,0.00018425589480211216
83,-0.36562929589793736,-0.06651813177529689,0.000921097961141848,0.015322083033257078,0.004894856546415148
84,-0.3669596585334433,0.006020283939486032,0.0012275396218069897,-0.09321469161927626,4.985627580726951e-05
85,-0.3668392528546536,0.033278828984385216,-0.0006367542105785355,-0.13374158182247808,0.0026165931113612258
86,-0.3661736762749659,-0.060565131410941976,-0.0033115858470280975,0.00683712450806187,0.0017655861947762324
87,-0.3673849789031847,-0.08910514486568405,-0.00317484335686686,0.04867330549068617,0.006647036464900528
88,-0.3691670818004984,-0.16369082335554214,-0.0022013772470531367,0.1596178570000375,0.004124429171144917
89,-0.37244089826760923,-0.13793731567952566,0.0009909798929476133,0.12034048470039074,0.011927959511603399
90,-0.37519964458119975,-0.05010317367457383,0.0033977895869554283,-0.011119315573645427,0.0029582800704216062
91,-0.3762017080546912,-0.10718024932245465,0.00317540327548252,0.07549475190005596,0.009967323086333444
92,-0.37834531304114033,-0.013497263189719236,0.004685298313483639,-0.06409545183831274,6.241088418753461e-06
93,-0.3786152583049347,-0.0139354677669633,0.003403389276717385,-0.062060679522606965,0.0012083889741916153
94,-0.37889396766027394,0.05637185916331657,0.0021621756862652457,-0.16652046462250725,0.004017469153806705
95,-0.3777665304770076,-0.02397178950170168,-0.0011682336061848994,-0.0453695941735498,0.00023966085765832695
96,-0.3782459662670416,-0.03293618088942316,-0.0020756254896558955,-0.03226647686980847,0.0013033978938819133
97,-0.37890468988483006,-0.06986869647701673,-0.0027209550270520647,0.022521943720751995,0.0036183605895164315
98,-0.3803020638143704,-0.018553516720472472,-0.0022705161526370247,-0.05525050076744142,0.0014833197923589713
99,-0.38067313414877985,-0.08722013223947458,-0.003375526167985853,0.04708162584100092,0.002566979261033048
100,-0.3824175367935693,-0.057736305246146175,-0.0024338936511658343,0.0018637344999414898,0.0015854842296800745
101,-0.3835722628984922,-0.030871034791940356,-0.0023966189611670046,-0.03914961584924886,7.493406662104306e-05
102,-0.38418968359433103,-0.033075722034774435,-0.0031796112781519816,-0.036547199782492164,0.0023080489739769517
103,-0.38485119803502654,-0.0978531344273212,-0.0039105552738018245,0.05968362349487507,0.005422209357240761
104,-0.386808260723573,-0.15339870776230705,-0.002716882803904323,0.14185164610734405,0.0041956024634150465
105,-0.3898762348788191,-0.18121446175189493,0.00012015011824255796,0.18277636053965163,0.005368501571852504
106,-0.393500524113857,-0.1509248759138186,0.0037756773290355907,0.13737730624516192,0.018432629532067275
107,-0.3965190216321334,-0.02668418390159867,0.006523223453938829,-0.04787235692024999,0.0016308431388319465
108,-0.39705270531016534,0.028352312003681428,0.00556577631553383,-0.12850753023722067,0.0016933055784904112
109,-0.3964856590700917,0.10165862264648662,0.002995625710789416,-0.2368289632626221,0.012594300124920537
110,-0.394452486617162,-0.033565344407014835,-0.0017409535544630258,-0.033113210141866745,0.002725353065766565
111,-0.3951237935053023,-0.10935570787261321,-0.0024032177573003605,0.08006032268426463,0.004134282453714368
112,-0.39731090766275456,-0.07116788826801264,-0.0008020113036150678,0.022072213350783965,0.003004183699976849
113,-0.3987342654281148,-0.029384459166388842,-0.0003605670365993885,-0.04083870144261821,0.00029228197151922653
114,-0.3993219546114426,-0.02025169007126148,-0.0011773410654517527,-0.054643860901268715,0.0004263236842195837
115,-0.3997269884128678,-0.03852890940404889,-0.0022702182834771273,-0.02757418909634139,0.0003029112648379301
116,-0.40049756660094876,-0.045924863771063223,-0.002821702065403955,-0.017147729736284895,0.005764955124651593
117,-0.40141606387637,-0.16630891778425372,-0.003164656660129653,0.1625980531039938,0.0002987046737300196
118,-0.40474224223205507,-0.16442984567696928,8.73044019502234e-05,0.1588490515522456,0.023862113689899964
119,-0.40803083914559446,-0.016347687978790215,0.0032642854329951354,-0.06324851665436407,0.0013150268141091464
120,-0.40835779290517027,-0.08313630668027523,0.0019993150999078543,0.03789357585871253,0.0022420835152634493
121,-0.4100205190387758,-0.056297347210250426,0.002757186617082105,-0.0017769846368340808,0.0008929181416587408
122,-0.41114646598298077,-0.07178861340743013,0.0027216469243454234,0.022270438172995975,0.0008811250510398395
123,-0.4125822382511294,-0.08397342480740866,0.003167055687805343,0.041347750787930966,0.004205264301885319
124,-0.4142617067472776,-0.03404327298714036,0.003994010703563962,-0.032615988518501,0.0016802804217209142
125,-0.4149425722070204,-0.0802443546159897,0.0033416909331939423,0.03785931719647318,0.012155497280835842
126,-0.41654745929934023,0.07073275219437877,0.004098877277123406,-0.18762262325489876,0.009441688363676416
127,-0.4151328042554526,-0.07740834827582674,0.00034642481202543053,0.035792227331957055,0.001118562348274948
128,-0.41668097122096914,-0.091813681830714,0.0010622693586645718,0.05750207526039661,0.006886353603332029
129,-0.4185172448575834,-0.16714726350923764,0.0022123108638725042,0.1708146911551751,0.020887055916570647
130,-0.42186019012776815,-0.03932585955036927,0.005628604686976006,-0.020266526720821354,0.0014105751162133424
131,-0.4226467073187755,-0.005213573086926618,0.0052232741525595795,-0.0697793448394744,0.0010778489078812968
132,-0.42275097878051404,-0.13069293879980537,0.0038276872557700915,0.11997277180198804,0.015329695538695598
133,-0.42536483755651017,-0.011330501401049048,0.006227142691809852,-0.05794423539119031,9.581089531130131e-05
134,-0.42559144758453116,-0.004726011538678358,0.005068257983986046,-0.06602000998782731,0.00045235904670319827
135,-0.4256859678153047,0.05231679587722801,0.0037478577842294998,-0.15009306069185718,0.004229711417797985
136,-0.42463963189776016,0.14296754666950198,0.0007459965703923558,-0.2849663642822682,0.01500830531522183
137,-0.42178028096437015,0.0303368516422044,-0.0049533307152530084,-0.11580104578012254,0.003628529192360175
138,-0.42117354393152606,-0.1107792884330662,-0.007269351630855459,0.09441429429816525,0.0012805093911794339
139,-0.4233891297001874,-0.09894350153724234,-0.005381065744892154,0.07452391247865928,0.006816609431975113
140,-0.42536799973093226,-0.16846251911564444,-0.003890587495318968,0.17721890341810315,0.0038741836851288107
141,-0.42873725011324515,-0.19196992856160014,-0.00034620942695690526,0.2113359208814408,0.003989254115443467
142,-0.43257664868447715,-0.17062326522156313,0.003880508990671911,0.17921414222086707,0.017189641973370702
143,-0.43598911398890844,-0.06746214160208087,0.007464791835089252,0.025614488647403733,0.008561587741995799
144,-0.43733835682095007,0.0584187667604215,0.007977081608037328,-0.16100698464586619,0.0008756995547327417
145,-0.43616998148574165,0.07502335819186222,0.004756941915120004,-0.1835678422170648,0.005822059945698933
146,-0.4346695143219044,-0.010229167949623141,0.001085585070778708,-0.05429196420589644,0.0001499867904367998
147,-0.4348740976808969,-0.021769404160518986,-2.542133392207345e-07,-0.036662458141513726,0.0012426587474621523
148,-0.4353094857641073,-0.07349990972643819,-0.0007335033761694952,0.040933225468640866,0.010296105895561323
149,-0.43677948395863603,0.06672665995568694,8.516113320332212e-05,-0.16962222244352385,0.00420049065847426
150,-0.4354449507595223,-0.0027133522625702178,-0.003307283315667155,-0.06543716712071261,0.0005702126291704505
151,-0.4354992178047737,-0.10047350269782857,-0.004616026658081408,0.08022991702628958,0.010188557930524846
152,-0.43750868785873026,-0.20306537701477273,-0.003011428317555616,0.23275898198880257,0.032100945676116606
153,-0.4415699953990257,-0.04031925606436862,0.0016437513222204354,-0.012244451102951998,0.005218419026862204
154,-0.4423763805203131,0.0842085350753128,0.0013988623001613954,-0.19855262279347244,0.003242121749385356
155,-0.4406922098188068,0.04211748293799128,-0.0025721901557080535,-0.13500484097868592,0.0027659812102722465
156,-0.43984986016004696,-0.0328441705556414,-0.005272286975281772,-0.02331895577877048,0.00016432416014912135
157,-0.44050674357115976,-0.037497073223110286,-0.005738666090857182,-0.017889743969534716,0.002379175161709656
158,-0.441256685035622,-0.09800279663532707,-0.0060964609702478766,0.07118018813859286,0.001025454380106776
159,-0.4432167409683285,-0.10847220061251855,-0.00467285720747602,0.08509165384676436,6.0343605692254325e-06
160,-0.4453861849805789,-0.10834893876233746,-0.002971024130540733,0.08353294807080361,7.988664707235421e-05
161,-0.44755316375582566,-0.10756090178927169,-0.0013003651691246606,0.0814774180188481,0.0011503993297614099
162,-0.4497043817916111,-0.11834881773029822,0.00032918319125230136,0.09727697099704452,0.001353076114065562
163,-0.4520713581462171,-0.12994054004028932,0.002274722611193192,0.11476133337643853,0.007324905573762846
164,-0.45467016894702283,-0.07267671777063867,0.004569949278721962,0.029534590070666458,0.002135733536552638
165,-0.4561237033024356,-0.10195177381924705,0.005160641080135291,0.07479027601094143,0.014090366067770775
166,-0.4581627387788206,0.03746033804405299,0.0066564466003541205,-0.13280788540700164,0.00021299408548530938
167,-0.4574135320179395,0.030752199913744654,0.004000288892214088,-0.1207889202815833,0.003059100294906941
168,-0.4567984880196646,0.14883700221962937,0.0015845104865824214,-0.2967386247223486,0.02186890009975335
169,-0.453821747975272,-0.00881897194235376,-0.00435026200786455,-0.05978911445819299,0.001312715453614165
170,-0.4539981274141191,-0.11976793864003994,-0.00554604429702841,0.10535378783101257,0.002587323834417684
171,-0.4563934861869199,-0.09773481173140042,-0.003438968540408158,0.07067407708347695,0.022784123806174214
172,-0.4583481824215479,0.13747994157914065,-0.002025486998738619,-0.2831570213161187,0.017886505873258466
173,-0.4555985835899651,-0.002530794311656953,-0.007688627425060993,-0.07373684105600598,0.00033972476314303695
174,-0.4556491994761982,-0.058764958370942776,-0.009163364246181112,0.00835147764170989,0.007489437628132486
175,-0.45682449864361707,-0.18378004931912026,-0.008996334693346915,0.19317224985271603,0.01234008506651874
176,-0.4605000996299995,-0.11485676052812416,-0.005132889696292594,0.08714661359544287,0.0006298885722730992
177,-0.46279723484056196,-0.1092417199018462,-0.0033899574243837364,0.07721510066426746,0.0081320062504759
178,-0.46498206923859886,-0.0341575472522864,-0.0018456554110983872,-0.0364071567447211,0.0009670805159121085
179,-0.4656652201836446,-0.060476496094652325,-0.002573798545992809,0.0025285768955358792,0.0026655604772008357
180,-0.46687475010553764,-0.10352239084610322,-0.0025232270080820917,0.06634050921958018,0.002002452750208492
181,-0.4689451979224597,-0.0840486326606671,-0.001196416823690488,0.03638813697547422,0.0008947923077210133
182,-0.470626170575673,-0.09462643913742266,-0.00046865408418100374,0.05190308887245068,0.0019535104113211675
183,-0.47251869935842145,-0.0739638032853669,0.0005694076932680099,0.020771354202365606,0.0021048328350260965
184,-0.4739979754241288,-0.10209447209918251,0.000984834777315322,0.06313475643536168,0.003012623903735092
