,X,v,theta,theta_dot,energy
0,0.0,-2.0,0.5235987755982988,0.0,0.26104234699114576
1,-0.04,-1.8810482533487287,0.5235987755982988,-0.007522851636797124,0.26477851924257495
2,-0.07762096506697458,-1.7523069499121149,0.5234483185655628,-0.027762710575439782,0.35221246746215495
3,-0.11266710406521688,-1.565948127810678,0.522893064354054,-0.12290925807037145,0.3288978782317441
4,-0.14398606662143043,-1.3714189173821572,0.5204348791926466,-0.22889273200447538,0.2785642618038786
5,-0.17141444496907357,-1.184100262894769,0.5158570245525571,-0.32647637476284164,0.5507119821807466
6,-0.19509645022696895,-0.7491044103796234,0.5093274970573003,-0.7490368502982017,0.20801858240007753
7,-0.21007853843456142,-0.49876215677253105,0.49434676005133626,-0.933535775055991,0.14810501766602788
8,-0.22005378157001204,-0.23919935666367176,0.47567604455021645,-1.1367769572528852,0.023125941269071137
9,-0.22483776870328548,-0.16652194813337154,0.45294050540515873,-1.0990562390495728,0.02503925409143492
10,-0.22816820766595292,-0.057769155096706576,0.4309593806241673,-1.1170784077985176,0.02722446635658565
11,-0.22932359076788705,0.1891984996404432,0.40861781246819695,-1.3308414640220347,0.007196455622877786
12,-0.2255396207750782,0.23674791812125723,0.38200098318775627,-1.279475193948615,0.029777170024836628
13,-0.22080466241265304,0.3899980885226399,0.356411479308784,-1.383184449882975,0.03546976196425261
14,-0.21300470064220023,0.48968673554251574,0.32874779031112444,-1.42073944643407,0.05410460140884235
15,-0.2032109659313499,0.6082849806144034,0.30033300138244307,-1.4941896518179807,0.0007154774175614444
16,-0.19104526631906185,0.6061752546365468,0.27044920834608344,-1.404190250414705,0.04814624491868153
17,-0.1789217612263309,0.6888413546919507,0.24236540333778933,-1.445135836007521,0.03230430488008575
18,-0.1651449341324919,0.7362272780496993,0.2134626866176389,-1.443577425922022,0.05330773866133359
19,-0.15042038857149792,0.8108465515514724,0.18459113809919847,-1.490683404664918,0.035540393516419244
20,-0.13420345754046847,0.8551479231631335,0.15477747000590011,-1.5020444110483893,0.00797306322668746
21,-0.11710049907720581,0.8434460756040678,0.12473658178493233,-1.4393783594052412,0.04132091572145341
22,-0.10023157756512445,0.7901990919370332,0.0959490145968275,-1.323550909968191,0.09437382374875646
23,-0.08442759572638378,0.6629969077336918,0.06947799639746369,-1.1054595007182484,0.0425853517356421
24,-0.07116765757170994,0.5943164972347764,0.04736880638309872,-0.9822773339985835,0.0631134155332223
25,-0.05928132762701441,0.4816872230538042,0.027723259703127046,-0.7996017041539915,0.08167626298280901
26,-0.04964758316593833,0.30239205797180657,0.011731225620047216,-0.5226127074785363,0.041516814231077
27,-0.0435997420065022,0.15686319515505576,0.0012789714704764914,-0.30088553279953273,0.02625763133072284
28,-0.04046247810340108,-0.022062802603057124,-0.0047387391855141636,-0.03212073816359545,0.001401621187100828
29,-0.040903734155462224,-0.08012704482517413,-0.005381153948786073,0.05358146316233971,0.0047833097182604055
30,-0.042506275051965706,-0.019983719361566878,-0.0043095246855392785,-0.03821427049245464,0.002218326802244103
31,-0.042905949439197046,-0.11956038187307,-0.0050738100953883715,0.10988233993762593,0.004640723906174667
32,-0.04529715707665845,-0.15900669901715422,-0.0028761632966358528,0.1675593602714645,0.011309361096240879
33,-0.048477291057001534,-0.08608430257553552,0.0004750239087934374,0.057330627193139444,0.004703645014104151
34,-0.05019897710851225,-0.14106250233576315,0.0016216364526562264,0.13993757455313527,0.0005551203076084313
35,-0.05302022715522751,-0.1370651361161695,0.0044203879437189324,0.134418294015787,0.011779505750077933
36,-0.0557615298775509,-0.049371923468450776,0.007108753824034673,0.004179349998088472,0.00944465173736903
37,-0.05674896834691991,0.13787654247891012,0.0071923408239964425,-0.27459629606713554,0.009883243729149274
38,-0.05399143749734171,0.060879707789284976,0.0017004149026537312,-0.15698950131957706,0.0013511350888143162
39,-0.052773843341556013,0.03632826040806414,-0.00143937512373781,-0.1196624617485069,0.001324057180967025
40,-0.05204727813339473,0.0781682877546859,-0.003832624358707948,-0.18284561389555692,0.014771797637307295
41,-0.05048391237830101,-0.12807603123713635,-0.007489536636619087,0.125391803648504,0.010536009207778066
42,-0.053045433003043735,-0.043973934047173036,-0.004981700563649007,-0.002959707174492482,0.0012390173330403516
43,-0.05392491168398719,-0.01649742948852809,-0.005040894707138857,-0.04563856650091535,0.0009123643643441213
44,-0.054254860273757755,0.03150268546890177,-0.0059536660371571635,-0.11911984092189246,0.001728827842869115
45,-0.05362480656437972,-0.033063900545990524,-0.008336062855595013,-0.024022045845887685,0.0025202909315189437
46,-0.05428608457529953,-0.10493242543929274,-0.008816503772512767,0.08132622181564265,0.0010958076253438124
47,-0.056384733084085384,-0.11536627990477083,-0.007189979336199914,0.094384376715493,0.00963997526419127
48,-0.0586920586821808,-0.030593234897807214,-0.005302291801890054,-0.03488573971313923,0.00039941976049349715
49,-0.059303923380136944,-0.01840750384652029,-0.0060000065961528385,-0.05472294583103827,0.0020043325796566635
50,-0.05967207345706735,-0.11190628332770014,-0.007094465512773604,0.08375870757045531,0.011449413339918623
51,-0.06191019912362135,-0.008472428408086291,-0.005419291361364498,-0.07347392570826464,0.0008213884269520279
52,-0.06207964769178308,-0.07623649429582109,-0.0068887698755297905,0.02657741665761268,0.0023999728022870313
53,-0.0636043775776995,-0.10734491782351291,-0.006357221542377537,0.07121366243737018,0.007938632368498304
54,-0.06575127593416977,-0.18164753617820112,-0.004932948293630134,0.18079632726838013,0.012498885498860399
55,-0.06938422665773379,-0.2518879893126725,-0.0013170217482625307,0.2847054441339504,0.03174730826026701
56,-0.07442198644398725,-0.12224632928381751,0.004377087134416477,0.08985591846068655,0.000660607783867545
57,-0.0768669130296636,-0.11685473958038108,0.006174205503630208,0.08305547088644653,0.01459187575121385
58,-0.07920400782127122,0.008949833278236854,0.00783531492135914,-0.10383258669823432,9.387020784900937e-05
59,-0.07902501115570648,-0.012811200043294897,0.005758663187394453,-0.06888847966180534,0.0010436177608959963
60,-0.07928123515657239,0.05097101348720929,0.004380893594158346,-0.1628671759733909,0.0032693226480200945
61,-0.0782618148868282,-0.0223009184932415,0.0011235500746905281,-0.051672354092973855,0.000631115167257029
62,-0.07870783325669302,-0.04729595504615883,9.010299283105099e-05,-0.013849499275774696,0.002851363124053446
63,-0.0796537523576162,-0.10534189886310799,-0.00018688699268444293,0.07324590637606891,0.006869572191416257
64,-0.08176059033487836,-0.0396412008881471,0.0012780311348369352,-0.02536008364086803,0.0032708866723911312
65,-0.0825534143526413,-0.11788460592682574,0.0007708294620195746,0.09238066911857186,0.00033483746292843516
66,-0.0849111064711778,-0.1207691139870628,0.002618442844391012,0.09693405376288523,0.005156379681540261
67,-0.08732648875091906,-0.0775746051774602,0.004557123919648716,0.032912333978958555,0.00659642423251988
68,-0.08887798085446826,0.006950525757586992,0.005215370599227887,-0.09253425610681042,0.00016445639973897353
69,-0.08873897033931652,-0.051585562721145624,0.0033646854770916787,-0.003198005521068928,0.0014357720991520326
70,-0.08977068159373944,-0.02455616290791663,0.0033007253666703,-0.04275266007529626,0.000132518154745008
71,-0.09026180485189778,-0.019724680590270938,0.0024456721651643747,-0.04902943257759157,0.0002716723796418647
72,-0.0906562984637032,-0.031832934770694404,0.0014650835136125432,-0.030148078724596475,0.0025023977504373
73,-0.09129295715911709,0.04167378384121448,0.0008621219391206136,-0.13997730390861368,0.0032529854510622556
74,-0.0904594814822928,-0.04821503037045774,-0.00193742413905166,-0.004890668880080384,0.0019483252838676318
75,-0.09142378208970195,-0.008944693049230616,-0.0020352375166532675,-0.06436566664827656,0.0005698229194519227
76,-0.09160267595068657,0.03791735550157372,-0.0033225508496187986,-0.13525695330764947,0.004089362998478146
77,-0.09084432884065509,-0.08761569073986453,-0.0060276899157717875,0.05206474855106086,0.0003765435073958535
78,-0.09259664265545238,-0.08322002884004691,-0.00498639494475057,0.043699245377766274,0.0020499509289634643
79,-0.09426104323225332,-0.058528843708784445,-0.004112410037195245,0.005196934085003553,0.004113481193515029
80,-0.095431620106429,-0.12731472925797724,-0.004008471355495174,0.10716584479111707,7.078598377444641e-06
81,-0.09797791469158855,-0.12720088649791236,-0.0018651544596728323,0.10581659460037234,0.005474424424483578
82,-0.10052193242154679,-0.08353615479333351,0.0002511774323346143,0.03977125587595315,0.004670674919732968
83,-0.10219265551741347,-0.13929464329481872,0.0010466025498536771,0.12348283215415427,0.016435888191056888
84,-0.10497854838330985,-0.019360544737591953,0.003516259192936763,-0.05611051605843213,0.0017921756194329045
85,-0.10536575927806169,0.060387379515289025,0.00239404887176812,-0.17469788485887136,8.352800332854635e-05
86,-0.1041580116877559,0.061906901819503875,-0.001099908825409307,-0.17627331208742392,0.0027616149419346973
87,-0.10291987365136583,0.011931317194204101,-0.0046253750671577856,-0.10163335362426237,0.0002755392692809559
88,-0.10268124730748175,-0.02476793984363524,-0.006658042139643033,-0.04794491234790342,0.004095284096926262
89,-0.10317660610435446,-0.1729396903739581,-0.007616940386601101,0.17235033725143217,0.0047221054865115904
90,-0.10663539991183363,-0.14492787392625067,-0.004169933641572457,0.12809447264180632,0.006483594893702112
91,-0.10953395739035864,-0.1903404859475875,-0.0016080441887363307,0.19498684149927115,0.027654597487530908
92,-0.11334076710931039,-0.041648379687968,0.002291692641249092,-0.028523794311244327,0.0028063629388934926
93,-0.11417373470306975,-0.10543533899200785,0.0017212167550242057,0.06783015044180295,0.0005566883651032946
94,-0.1162824414829099,-0.11076630851688454,0.003077819763860265,0.07633263036013835,0.016309697378770492
95,-0.1184977676532476,0.03748764238076108,0.004604472371063032,-0.1451423651008131,0.0025458975468907897
96,-0.11774801480563238,-0.04298538160025314,0.0017016250690467696,-0.023080398624766185,0.002777346690363688
97,-0.11860772243763744,0.01852393707152683,0.001240017096551446,-0.11484396552713651,0.0007843294693784771
98,-0.1182372436962069,-0.039011367212548734,-0.0010568622139912843,-0.02817651051959949,0.001770162791077408
99,-0.11901747104045787,-0.0818578945639044,-0.0016203924243832742,0.035782527181046714,0.0004415197413308818
100,-0.12065462893173597,-0.0872035135616343,-0.0009047418807623399,0.04332454998647144,0.00467568205197603
101,-0.12239869920296866,-0.03367165032088444,-3.8250881032911104e-05,-0.037239206087115125,0.0002334145290808341
102,-0.12307213220938634,-0.027231804862144125,-0.0007830350027752136,-0.04691022002717979,0.0032370786330910505
103,-0.12361676830662922,-0.13477118707294675,-0.0017212394033188094,0.11416859156890596,0.007610744438105886
104,-0.12631219204808816,-0.19204716635496077,0.0005621324280593099,0.19957638909009806,0.022356691224163547
105,-0.13015313537518738,-0.07285127230392123,0.004553660209861272,0.020947843187472753,0.0002594304139996661
106,-0.1316101608212658,-0.076436820119823,0.004972617073610727,0.027664880624396346,0.006425564689568768
107,-0.13313889722366226,0.006876904923237101,0.005525914686098654,-0.09584221847975084,0.00018304141245088003
108,-0.13300135912519753,-0.0640523417528091,0.0036090703165036373,0.012174637780612618,0.008228574558447036
109,-0.1342824059602537,-0.19052933017418666,0.00385256307211589,0.20294994922466844,0.042208996535312134
110,-0.13809299256373744,0.03654431554573151,0.00791156205660926,-0.1365253409054447,0.0006293531815359743
111,-0.1373621062528228,0.05666915255224356,0.005181055238500366,-0.16438567668792403,0.006213945177792948
112,-0.13622872320177792,-0.0666311841767034,0.0018933417047418848,0.022085569492380747,0.005913815638165513
113,-0.137561346885312,0.021255912498273924,0.0023350530945894996,-0.10918819710205319,0.00021712215960392086
114,-0.13713622863534652,0.0082212370095107,0.0001512891525484359,-0.0889497321863452,1.9373119907968885e-05
115,-0.1369718038951563,0.012742833939403078,-0.0016277054911784682,-0.0956876484928851,0.0005747199752688906
116,-0.13671694721636826,-0.05403651613976486,-0.00354145846103617,0.004002698727633314,0.003974731380412443
117,-0.13779767753916355,0.018018984581163286,-0.003461404486483504,-0.10512106117941594,5.778808777655494e-06
118,-0.1374372978475403,0.018494382604667015,-0.005563825710071823,-0.1068518048296432,0.002642758107557469
119,-0.13706741019544696,-0.1704838273651644,-0.007700861806664687,0.1749753662878598,0.002949811583022292
120,-0.14047708674275025,-0.1526670880795155,-0.004201354480907491,0.1459870188050831,0.00313555461392689
121,-0.14353042850434056,-0.1316588602287828,-0.0012816141048058289,0.11323976056316173,0.01961981461977937
122,-0.1461636057089162,0.019660096318509485,0.000983181106457406,-0.11411528229148618,0.001404193586870876
123,-0.14577040378254602,-0.0750089489789989,-0.0012991245393723177,0.028177272219985727,0.005249235985151407
124,-0.147270582762126,-0.005529683738518004,-0.0007355790949726031,-0.07642348020149059,7.477852921118821e-05
125,-0.14738117643689638,-0.013622084134346537,-0.002264048699002415,-0.06450114312612376,0.0008981417857648036
126,-0.1476536181195833,-0.06652176447904637,-0.0035540715615248897,0.014182544272658207,0.004788924857663243
127,-0.14898405340916424,0.004450919517959354,-0.0032704206760717255,-0.0933207041983081,1.9433288212934027e-05
128,-0.14889503501880505,-0.08616991491688238,-0.0051368347600378875,0.041648318553180186,0.0017921417337178934
129,-0.1506184333171427,-0.10684249795248,-0.004303868388974284,0.0711465612130789,0.009931714024444612
130,-0.1527552832761923,-0.20030068864134748,-0.0028809371647127062,0.21006721548399532,0.015225761410791055
131,-0.15676129704901925,-0.12238677277336832,0.0013204071449672006,0.09234983232929152,0.01444141356140946
132,-0.15920903250448662,-0.003196848491503812,0.0031674037915530306,-0.08604669865221783,1.6578948721989867e-05
133,-0.15927296947431668,-0.00551777892258721,0.0014464698185086742,-0.08163410531138271,0.0009958004146832981
134,-0.15938332505276842,-0.11081249768232551,-0.00018621228771898,0.0767330695774752,0.009639980220110348
135,-0.16159957500641492,-0.023179818184993567,0.0013484491038305239,-0.054770693801797304,0.0021260332963163745
136,-0.16206317137011478,0.05760441088861887,0.00025303522779457767,-0.1755504833274691,0.005648790624747881
137,-0.1609110831523424,-0.05345273773385277,-0.0032579744387548045,-0.008890373370561422,0.001125420479257689
138,-0.16198013790701946,-0.03301918301033856,-0.003435781906166033,-0.04049838557907783,0.0015033446375018985
139,-0.16264052156722622,-0.07504324457570097,-0.004245749617747589,0.02152721681841791,0.004620404288013516
140,-0.16414138645874024,-0.1358440503753919,-0.003815205281379231,0.11147935686753943,1.8373626953435645e-05
141,-0.16685826746624807,-0.13565231242739131,-0.0015856181440284424,0.11007008440711497,0.00042543678521789197
142,-0.1695713137147959,-0.1324526835890728,0.0006157835441138568,0.10480447564397574,0.01002036017501637
143,-0.17222036738657734,-0.05590070195809839,0.002711873056993372,-0.009842434681185064,0.00018395103142832976
144,-0.17333838142573932,-0.052754670394360936,0.0025150243633696705,-0.013764174972752131,0.006403232846889227
145,-0.17439347483362655,-0.16981990386498882,0.002239740863914628,0.162572536258086,0.012166457409095945
146,-0.17778987291092632,-0.09677625172186108,0.005491191589076348,0.05366581612100638,0.011201684479108496
147,-0.17972539794536355,0.01898986269428546,0.006564507911496475,-0.11836633525805576,0.00039255265835267
148,-0.17934560069147784,-0.00924428703436795,0.00419718120633536,-0.07408607171271146,0.001228324588680143
149,-0.1795304864321652,0.08571468494478221,0.0027154597720811307,-0.21528930741017455,0.013247187405304487
150,-0.17781619273326957,-0.08453721986587173,-0.0015903263761223602,0.04088595245561483,0.002272689001053663
151,-0.179506937130587,-0.057696682301421665,-0.0007726073270100637,0.00015764126400184125,0.0004243587223255503
152,-0.1806608707766154,-0.05050910784705735,-0.0007694545017300269,-0.010850863731271185,0.00126466723533137
153,-0.18167105293355656,-0.026306596207985224,-0.0009864717763554507,-0.04738084004405747,0.0009913689706978436
154,-0.18219718485771627,0.007691387825348842,-0.0019340885772366001,-0.09866781393601487,0.0003802936932505517
155,-0.1820433571012093,-0.10798877629397015,-0.003907444855956898,0.07428348601239132,0.005079315091985892
156,-0.1842031326270887,-0.06056332645675005,-0.0024217751357090713,0.001997068464808127,0.0019363264113251013
157,-0.1854143991562237,-0.029289659069927365,-0.0023818337664129087,-0.045625296244487946,0.0014853538571253924
158,-0.18600019233762224,-0.07545965451117331,-0.0032943396913026677,0.022929242005896598,0.0016688349816011236
159,-0.1875093854278457,-0.05353406151143675,-0.0028357548511847358,-0.010927503147761405,0.005214544235632291
160,-0.18858006665807445,-0.14765007408824887,-0.0030543049141399637,0.12941223728314166,0.009033891595826057
161,-0.19153306813983942,-0.0854373902805164,-0.0004660601684771306,0.035195682598861286,0.007286003007955304
162,-0.19324181594544976,-0.0006442058811324536,0.0002378534835000951,-0.0921311018712087,0.0003600519103422825
163,-0.1932547000630724,-0.07334452881058716,-0.0016047685539240788,0.01698930836173676,0.0035263749314604085
164,-0.19472159063928415,-0.12072756122223655,-0.0012649823866893437,0.08759196370837381,0.0014613231649933665
165,-0.19713614186372888,-0.13292123629158542,0.00048685688747813257,0.10551055695583797,0.01316505787440628
166,-0.1997945665895606,-0.03268292529523874,0.002597068026594892,-0.04470375579983116,0.0006012033144694751
167,-0.20044822509546537,-0.015824269003386068,0.001702992910598269,-0.06922811781543015,0.0010512730396477871
168,-0.2007647104755331,-0.06991183607882391,0.0003184305542896662,0.01240379482350315,0.005725695887329837
169,-0.2021629471971096,-0.15046728216011424,0.0005665064507597293,0.1333305764006958,0.013551861471830056
170,-0.20517229284031188,-0.058919271536087406,0.0032331179787736452,-0.0038248646123833496,0.0039534368116658815
171,-0.20635067827103362,-0.12423564057606377,0.003156620686525978,0.09509971191124113,0.0026788743723442044
172,-0.2088353910825549,-0.14607614206756941,0.005058614924750801,0.1287883458710285,0.017045207377430285
173,-0.21175691392390628,-0.02755516221936237,0.00763438184217137,-0.047503622784180605,0.00045897527406460676
174,-0.21230801716829353,-0.012595187009935605,0.006684309386487758,-0.06769844519991174,0.0006775112983082211
175,-0.21255992090849224,-0.05486626050117109,0.005330340482489523,-0.002328079135632169,0.0009177802595953663
176,-0.21365724611851566,-0.0386545534366007,0.00528377889977688,-0.02507818159071179,0.0009594565860855123
177,-0.2144303371872477,-0.015208122539143533,0.0047822152679626445,-0.05869391323098134,0.0017546340115498164
178,-0.21473449963803057,0.0804849380845431,0.003608337003343018,-0.20082589689456343,0.013522060157481173
179,-0.2131248008763397,-0.10444457395164147,-0.000408180934548251,0.07762741408860313,0.005068135182942168
180,-0.21521369235537252,-0.055442335579026024,0.0011443673472238116,0.0040040574615138325,0.00023299219130533017
181,-0.21632253906695303,-0.05134531891114427,0.0012244484964540883,-0.0018050195896406815,0.004729894217850834
182,-0.21734944544517593,0.03836620480916904,0.0011883481046612748,-0.13601221652549478,0.003467635266958744
183,-0.21658212134899255,-0.06676751885257015,-0.0015318962258486209,0.022037631877554226,0.004426002179824692
184,-0.21791747172604395,-0.0010875705222498921,-0.0010911435882975363,-0.07693255233354879,3.663297234768447e-05
