,X,v,theta,theta_dot,energy
0,0.0,2.0,-0.3490658503988659,0.0,0.9620685472519382
1,0.04,1.5392512433467662,-0.3490658503988659,0.5488893878572424,0.3305161215967828
2,0.07078502486693533,1.3391338291470252,-0.33808806264172103,0.7304087518408765,0.06663636916223074
3,0.09756770144987584,1.3904703524786044,-0.3234798876049035,0.5602480707113084,0.09147853080147665
4,0.12537710849944791,1.4572887480289887,-0.3122749261906773,0.37176562257981094,0.2881078362064662
5,0.15452288346002768,1.2719486885344684,-0.3048396137390811,0.5460063891919795,0.17836227360378
6,0.17996185723071706,1.4093650156336506,-0.2939194859552415,0.2611440318167624,0.15668986793887166
7,0.20814915754339008,1.306357025837664,-0.28869660531890623,0.3238563655022184,0.047895678641814106
8,0.23427629806014336,1.3453971270456322,-0.2822194780088619,0.18401699477495523,0.15930248972568117
9,0.261184240601056,1.235018648632056,-0.2785391381133628,0.26115933065824815,0.059596854419470144
10,0.2858846135736971,1.285161662523789,-0.27331595150019783,0.10800801093241724,0.04957713745858818
11,0.3115878468241729,1.3261651446275247,-0.2711557912815495,-0.030572387790685968,0.07082763490461162
12,0.3381111497167234,1.277961000209781,-0.2717672390373632,-0.03965457993231583,0.11626125372070831
13,0.36367036972091904,1.1932398427887538,-0.27256033063600954,0.00384333957073079,0.06025768928228326
14,0.3875351665766941,1.2459391686981538,-0.27248346384459493,-0.1514317922233858,0.08221441946311851
15,0.4124539499506572,1.1852512982944878,-0.27551209968906265,-0.14288104487041164,0.022544372874675957
16,0.43615897591654695,1.1704253141305692,-0.27836972058647086,-0.20146047823837662,0.08546788757443523
17,0.45956748219915833,1.1027956877407592,-0.2823989301512384,-0.1847089899781721,0.025092088487179105
18,0.4816233959539735,1.128838162732877,-0.28609310995080184,-0.30415152237973975,0.2378877917285603
19,0.504200159208631,0.9258393436202477,-0.2921761403983966,-0.09499865870863972,0.12531172027347728
20,0.522716946081036,1.0616087588293202,-0.2940761135725694,-0.3747046093056128,0.3033740254824283
21,0.5439491212576224,0.7841126147204788,-0.30157020575868165,-0.06154720432871169,0.10187026219060898
22,0.559631373552032,0.9145195608309235,-0.3028011498452559,-0.335653831933667,0.16998661194826845
23,0.5779217647686504,0.7354607529297166,-0.30951422648392923,-0.1669544101509301,0.0036304623406446133
24,0.5926309798272448,0.7444161374746996,-0.3128533146869478,-0.2693003880015273,0.098493304012947
25,0.6075193025767388,0.6183356840570582,-0.3182393224469784,-0.17984552578613036,0.09113952643855257
26,0.61988601625788,0.4779659885504861,-0.321836232962701,-0.07185445430799949,0.04100844193603193
27,0.6294453360288897,0.3985976391897508,-0.32327332204886094,-0.051909398900236145,0.03623093061414147
28,0.6374172888126848,0.31435922608650935,-0.32431151002686565,-0.025492595717266496,0.015716669854141496
29,0.6437044733344149,0.3672453349146492,-0.324821361941211,-0.1943712979538385,0.0787570725146996
30,0.651049380032708,0.15902171976006774,-0.32870878790028774,0.007804392074590716,0.008188851509630436
31,0.6542298144279093,0.11361644278952598,-0.32855270005879594,-0.022643630661486728,0.008362500706551666
32,0.6565021432836998,0.04608215922271555,-0.3290055726720257,-0.02162678795519366,0.0024310504118295532
33,0.6574237864681541,-0.0016961729759244829,-0.32943810843112953,-0.048795256303778275,0.0006624581912240422
34,0.6573898630086357,-0.16637064647325664,-0.33041401355720507,0.08982086641541694,0.0003583650755789977
35,0.6540624500791705,-0.15987064081824845,-0.32861759622889675,-0.014785540065231667,0.021328514830822917
36,0.6508650372628055,-0.28418381338341736,-0.3289133070302014,0.0668220471175478,0.018241898244747798
37,0.6451813609951372,-0.34261986032215974,-0.3275768660878504,0.05481098119569562,0.04601301159955922
38,0.6383289637886941,-0.46922332718737936,-0.3264806464639365,0.140023518388658,0.033831395266729986
39,0.6289444972449465,-0.39417950059421203,-0.32368017609616334,-0.06088535254289498,0.10837249240245525
40,0.6210609072330623,-0.6543830060324238,-0.3248978831470212,0.21564288740403584,0.08069142643939868
41,0.6079732471124139,-0.5289589577975771,-0.3205850253989405,-0.05649886365891829,0.10262388594968319
42,0.5973940679564623,-0.7117537961644604,-0.3217150026721189,0.11107781551736773,0.029559521150645966
43,0.5831589920331731,-0.7479827630591442,-0.3194934463617715,0.06967210281983546,0.13631341637924513
44,0.5681993367719902,-0.9209732649637542,-0.31810000430537483,0.2236852956333727,0.08664600626903944
45,0.5497798714727151,-0.8246578185435044,-0.3136262983927074,-0.005492014880261992,0.12971266258199554
46,0.533286715101845,-0.9728293881752827,-0.31373613869031264,0.11522190497397947,0.004693282023781762
47,0.5138301273383393,-0.9733507435596923,-0.311431700590833,0.025233087305725085,0.02059351693978543
48,0.4943631124671455,-0.9897198246621375,-0.3109270388447185,-0.04148242563115716,0.3549159560228849
49,0.4745687159739027,-1.3324187119117645,-0.31175668735734163,0.35797071407832826,0.2874257014814852
50,0.4479203417356674,-1.1168206772897276,-0.30459727307577505,-0.04001632212218176,0.2332087974312323
51,0.42558392818987284,-1.314820747334557,-0.3053975995182187,0.15513896884304057,0.12199119231508747
52,0.3992875132431817,-1.4011286084080838,-0.3022948201413579,0.19021255144716837,0.07518601824097713
53,0.37126494107502,-1.449412610592732,-0.2984905691124145,0.17182720106823193,0.03352684182439668
54,0.34227668886316537,-1.4228739578789213,-0.2950540250910499,0.047320582686751114,0.3115177959849392
55,0.31381920970558697,-1.6314987759378827,-0.29410761343731484,0.2612419630972106,0.08143710491888885
56,0.2811892341868293,-1.57882315575566,-0.2888827741753706,0.10039481987924936,0.19495701159377912
57,0.2496127710717161,-1.6950251138808305,-0.28687487777778564,0.18371997000493262,0.23815305841087164
58,0.2157122687940995,-1.8280882263100515,-0.28320047837768697,0.29196864538802225,0.20801708508142652
59,0.17915050426789847,-1.935444283445059,-0.27736110546992654,0.3644356678257513,0.7290697830765329
60,0.1404416185989973,-2.3002610908927985,-0.2700723921134115,0.8102440199591967,1.0576928245637993
61,0.09443639678114132,-2.7500472111071987,-0.25386751171422756,1.3820275946945957,0.964647380153129
62,0.03943545255899735,-3.095419375958429,-0.22622695982033564,1.8096432975544667,0.5384082882743471
63,-0.022472934960171227,-2.919424697352203,-0.1900340938692463,1.4864330389462304,0.004200989100925856
64,-0.08086142890721529,-2.9186103927058635,-0.1603054330903217,1.4296992125886605,0.18271503811100262
65,-0.13923363676133255,-2.8543364447329798,-0.1317114488385485,1.2875962149803484,0.06392730994658917
66,-0.19632036565599215,-2.874960082203271,-0.10595952453894153,1.279652424129096,0.5114993374278793
67,-0.25381956730005756,-2.6966225242876285,-0.0803664760563596,0.9825525458979262,0.348796034162668
68,-0.30775201778581013,-2.8238010579156128,-0.06071542513840108,1.1491022973235494,0.41431889191870197
69,-0.36422803894412237,-2.6772106401811038,-0.037733379191930094,0.911782465459414,0.1460204680644727
70,-0.41777225174774446,-2.622658215345295,-0.019497729882741816,0.8189210942836999,0.1479452282177488
71,-0.47022541605465035,-2.6782167152763,-0.003119307997067819,0.8965110343908327,0.31250812668835365
72,-0.5237897503601764,-2.5625765072597018,0.014810912690748836,0.7221344911928804,0.05691696036498939
73,-0.5750412805053704,-2.584731193524994,0.029253602514606444,0.75971712484976,0.35950787259784056
74,-0.6267359043758702,-2.4476097450786853,0.044447945011601646,0.5627222870596045,0.13390631169797376
75,-0.6756880992774439,-2.5021623475803367,0.055702390752793735,0.6575337661756241,0.12137656226767846
76,-0.7257313462290507,-2.4550502179210403,0.06885306607630622,0.6033432119153308,0.15131620340237503
77,-0.7748323505874715,-2.3952220878335364,0.08091993031461284,0.5340404660687621,0.07207934888319029
78,-0.8227367923441422,-2.4259987861176566,0.09160073963598808,0.6038189553271995,0.5755988210820076
79,-0.8712567680664953,-2.1933033676545404,0.10367711874253208,0.28313213345310645,0.15294945069547145
80,-0.9151228354195862,-2.263149950471724,0.10933976141159421,0.4177659247602452,0.08122939513434226
81,-0.9603858344290206,-2.299966058888537,0.11769507990679912,0.5047421850955396,0.5987786884238235
82,-1.0063851556067913,-2.04533383235346,0.12778992360870992,0.15995871512282528,0.3806614292221562
83,-1.0472918322538605,-2.229140153968791,0.13098909791116642,0.4708881207267268,0.8485516224787792
84,-1.0918746353332363,-1.8564884285828027,0.14040686032570096,-0.044900051088270665,0.6567452582583675
85,-1.1290044039048923,-2.202732446738879,0.13950885930393556,0.5104990865366287,0.6801555536836092
86,-1.1730590528396698,-1.9006790211114009,0.14971884103466812,0.10270357617719228,0.16493935392978593
87,-1.2110726332618977,-1.9875200520166227,0.15177291255821196,0.2753609704113984,0.25589820004803837
88,-1.2508230343022302,-1.8634610201855248,0.15728013196643992,0.13586171305019962,0.1121971148158812
89,-1.2880922547059406,-1.8068451110463535,0.1599973662274439,0.09803602120414094,0.283828679423095
90,-1.3242291569268676,-1.6557519826373746,0.16195808665152672,-0.07887017363319355,0.2960577457513301
91,-1.3573441965796151,-1.8317709124878359,0.16038068317886287,0.22911078273945595,0.3246060091783839
92,-1.393979614829372,-1.6604811381453943,0.16496289883365198,0.022423516922620457,0.04267495057412069
93,-1.42718923759228,-1.637760307197652,0.1654113691721044,0.03708436789303106,0.007387834975821759
94,-1.459944443736233,-1.6444813461482939,0.166153056529965,0.09543780129919247,0.13041339286574102
95,-1.492834070659199,-1.569398215357583,0.16806181255594885,0.032988685401675606,0.051897965044293434
96,-1.5242220349663507,-1.5395317380922648,0.16872158626398237,0.03799806528265635,0.17121798733037108
97,-1.555012669728196,-1.4335024188222611,0.1694815475696355,-0.06941839386574841,0.17545856679014865
98,-1.5836827181046413,-1.5547881162098842,0.16809317969232052,0.15949291939306764,0.39048824913874947
99,-1.614778480428839,-1.3114900975566166,0.17128303808018186,-0.15112339355497562,0.12448486506884113
100,-1.6410082823799712,-1.4058224144952047,0.16826057020908236,0.03841586402598679,0.36818680269566073
101,-1.6691247306698753,-1.1528822717589764,0.1690288874896021,-0.28640063568143415,0.3864051307370497
102,-1.692182376105055,-1.4779622076521486,0.1633008747759734,0.2437281963075424,0.6051893699383426
103,-1.721741620258098,-1.0785619775578734,0.16817543870212426,-0.299604370139112,0.2289529112894455
104,-1.7433128598092553,-1.2850417210523135,0.16218335129934203,0.05495650159754062,0.2546302619473609
105,-1.7690136942303016,-1.0940030437990287,0.16328248133129283,-0.18036789020999897,0.03174385487001706
106,-1.7908937551062822,-1.12434021285049,0.15967512352709284,-0.08767538645327215,0.08794858814678376
107,-1.8133805593632921,-1.0506781563295635,0.1579216157980274,-0.15001763103912616,0.2624026189756816
108,-1.8343941224898834,-0.8112328862874296,0.1549212631772449,-0.4584799378191645,0.19347672708333982
109,-1.850618780215632,-1.0399058733694668,0.1457516644208616,-0.0742135694906415,0.17375483925108795
110,-1.8714168976830212,-0.8797229100413468,0.14426739303104877,-0.26924095594377073,0.04165327543279057
111,-1.8890113558838482,-0.927247083258458,0.13888257391217335,-0.15642761688821055,0.08384962113652251
112,-1.9075562975490172,-0.8417720138418022,0.13575402157440913,-0.24270536005718016,0.09328638153863335
113,-1.9243917378258533,-0.7370955205918851,0.13089991437326554,-0.3584862906113324,0.08405157931572486
114,-1.939133648237691,-0.8476596780513467,0.12373018856103889,-0.15568413195860797,0.13850712102230814
115,-1.956086841798718,-0.6914832133536544,0.12061650592186672,-0.3518739873175768,0.15362761067784272
116,-1.969916506065791,-0.904840662205527,0.11357902617551519,0.0012123407262977226,0.22735513723180123
117,-1.9880133193099017,-0.661532462654916,0.11360327299004114,-0.3280779600962777,0.08242830316082629
118,-2.001243968563,-0.7819216104716097,0.10704171378811558,-0.11533069745335989,0.11942377981367124
119,-2.0168824007724324,-0.6355467356901381,0.10473509983904838,-0.3022261446394102,0.018075851141309898
120,-2.029593335486235,-0.6098854236798493,0.09869057694626018,-0.30977133305155374,0.04177548568024127
121,-2.041791043959832,-0.676560349497037,0.0924951502852291,-0.18127764865645382,0.03576508236563635
122,-2.055322250949773,-0.7287994597475608,0.08886959731210002,-0.07609912172532093,0.09277276614675571
123,-2.069898240144724,-0.60653107119523,0.0873476148775936,-0.2326846588147192,0.018825183513524704
124,-2.0820288615686287,-0.6375188539578562,0.08269392170129922,-0.16073263412291988,0.0357758904013104
125,-2.094779238647786,-0.5845933796424201,0.07947926901884082,-0.2155652469388815,0.06481957094752393
126,-2.1064711062406345,-0.4793760046451429,0.0751679640800632,-0.34955077020421543,0.10808321917315576
127,-2.1160586263335373,-0.6932807859853707,0.06817694867597889,-0.007521052478845991,0.0945894919818609
128,-2.1299242420532445,-0.5612560528561666,0.06802652762640196,-0.18506958389896505,0.004916369406728081
129,-2.141149363110368,-0.5706432109448927,0.06432513594842267,-0.1510370367887226,0.026787109053273753
130,-2.1525622273292657,-0.6168014621782664,0.061304395212648216,-0.06304430225502301,0.04709282753034713
131,-2.164898256572831,-0.5435543150685845,0.060043509167547755,-0.1546964230020707,0.025507764635159854
132,-2.1757693428742026,-0.4992242159162197,0.056949580707506345,-0.20342955625299264,0.09537280564109411
133,-2.185753827192527,-0.6829913538907431,0.05288098958244649,0.08850839657400233,0.12462007146340293
134,-2.1994136542703417,-0.5047192769661181,0.05465115751392654,-0.16298615002327443,0.04186515596338138
135,-2.209508039809664,-0.5852377713206376,0.05139143451346105,-0.026329286735782553,0.09990276394656845
136,-2.221212795236077,-0.41980378931025486,0.0508648487787454,-0.25905020672729173,0.08636329523857209
137,-2.229608871022282,-0.6157272340927141,0.04568384464419956,0.049402685741906704,0.16023613056240538
138,-2.2419234157041363,-0.36160028021896357,0.0466718983590377,-0.31796366041037777,0.0739695541282782
139,-2.2491554213085156,-0.5541425343935414,0.040312625150830145,-0.015748221118826566,0.06619070847625569
140,-2.2602382719963865,-0.4383502842985426,0.039997660728453614,-0.17744678226154229,0.06215560406394745
141,-2.2690052776823575,-0.5747444544697279,0.03644872508322277,0.03873701800617671,0.0785202247222087
142,-2.280500166771752,-0.4415848048556336,0.0372234654433463,-0.15015624057174748,0.0197477345457016
143,-2.2893318628688646,-0.4850786595420881,0.03422034063191135,-0.07401947991752657,0.0050547844350435885
144,-2.2990334360597062,-0.47547328984223713,0.03273995103356082,-0.07836028246747205,0.009569955053409655
145,-2.308542901856551,-0.4954311131606244,0.031172745384211376,-0.03881576463036806,0.03665554950712651
146,-2.318451524119763,-0.42395633738725674,0.030396430091604015,-0.13681253841503124,0.0272964445402448
147,-2.3269306508675083,-0.48629421043778986,0.02766017932330339,-0.034413748625962706,0.015666435594957735
148,-2.3366565350762643,-0.5180183541817784,0.026971904350784136,0.021285320191332592,0.042217579245961395
149,-2.3470169021598997,-0.4387499981644988,0.027397610754610786,-0.08964518817850417,0.029314869910418633
150,-2.3557919021231895,-0.5037242268091654,0.025604706991040702,0.015833468310617355,0.017866663732605977
151,-2.3658663866593725,-0.46943938128528945,0.02592137635725305,-0.028049981666206557,0.01981201081146124
152,-2.3752551742850785,-0.42875023561956627,0.025360376723928917,-0.08144316525033242,0.03308131419336964
153,-2.38383017899747,-0.5037415418595534,0.023731513418922268,0.038462774695408,0.10486487266407135
154,-2.393905009834661,-0.30028838195735574,0.02450076891283043,-0.25965462283888135,0.07814087852430228
155,-2.3999107774738078,-0.5449013169070391,0.019307676456052802,0.11435716191070966,0.11846630488016709
156,-2.4108088038119484,-0.33103522522606965,0.021594819694266996,-0.20070607849490807,0.06616326479537746
157,-2.4174295083164696,-0.5211017177170467,0.017580698124368833,0.0906755702048343,0.06592456612244088
158,-2.4278515426708105,-0.3969482666489038,0.01939420952846552,-0.09035736804542774,0.04727719224352842
159,-2.4357905080037887,-0.512229984489897,0.017587062167556965,0.08823422874783826,0.09999953043126819
160,-2.4460351076935867,-0.3205212466543962,0.01935174674251373,-0.19411407710040596,0.09551209132664513
161,-2.4524455326266748,-0.6037245965804237,0.01546946520050561,0.23630046607648936,0.22414841748897527
162,-2.4645200245582832,-0.23517164580918754,0.0201954745220354,-0.31191497277771785,0.09127480203436254
163,-2.469223457474467,-0.5925750403688133,0.013957175066481042,0.2300178615301306,0.12846190903731752
164,-2.481074958281843,-0.37748092607414985,0.018557532297083654,-0.08848860848562234,0.028056365184724995
165,-2.488624576803326,-0.44949310850100355,0.016787760127371206,0.02496666726121953,0.007321691014013796
166,-2.497614438973346,-0.4338024343117668,0.017287093472595598,0.0063693421116414566,0.010387774988839749
167,-2.5062904876595815,-0.41067339146035653,0.017414480314828427,-0.023236885975737247,0.003214657403438627
168,-2.5145039554887885,-0.4033059823174595,0.01694974259531368,-0.029166725590953218,0.02207076224783924
169,-2.5225700751351376,-0.35033516215381305,0.016366408083494616,-0.10362855675131724,0.016947719811597903
170,-2.529576778378214,-0.397138510036311,0.014293836948468272,-0.028621428083591943,0.00904477860929876
171,-2.53751954857894,-0.3751969482217314,0.013721408386796433,-0.057328163676868465,0.022675658875581064
172,-2.5450234875433746,-0.43394882319191225,0.012574845113259063,0.03482532016539738,0.05281021425298284
173,-2.553702464007213,-0.31496720081036145,0.01327135151656701,-0.13993609593021156,0.03945988897515826
174,-2.5600018080234204,-0.4349632432766484,0.010472629597962779,0.04394377974625435,0.015011931299476105
175,-2.5687010728889534,-0.4012870250012016,0.011351505192887867,-0.003488880767372367,0.006263854326525563
176,-2.5767268133889774,-0.38622727123935846,0.01128172757754042,-0.022739785159443162,0.003830032683455319
177,-2.5844513588137645,-0.37674029859345404,0.010826931874351556,-0.03365258098143999,0.034609379011370046
178,-2.5919861647856335,-0.46615710139815353,0.010153880254722756,0.10364781784223151,0.06788352007133061
179,-2.6013093068135964,-0.32278136152160963,0.012226836611567385,-0.10841951590253057,0.0636805181701422
180,-2.6077649340440288,-0.5125351579448723,0.010058446293516774,0.17978450388808997,0.07640093779926119
181,-2.618015637202926,-0.364894960955135,0.013654136371278573,-0.038707455516253236,0.022716940629495763
182,-2.625313536422029,-0.4255361459560284,0.012879987260953508,0.056260034226501596,0.02918937243591655
183,-2.633824259341149,-0.3583957474010708,0.01400518794548354,-0.04065559851921746,0.009422647374625228
184,-2.6409921742891704,-0.3841145486458225,0.01319207597509919,0.0020362105952292722,0.05712683716526813
185,-2.648674465262087,-0.5294328764199748,0.013232800187003775,0.22387309296749971,0.15212432258892417
186,-2.6592631227904864,-0.2438063465162577,0.01771026204635377,-0.20063886131636902,0.06952952918256904
187,-2.6641392497208116,-0.5122500987804948,0.013697484820026388,0.2071701648691072,0.10378696657678141
188,-2.6743842516964214,-0.3110790930049268,0.017840888117408533,-0.09053110168289044,0.0482319004026159
189,-2.6806058335565197,-0.4606221246316004,0.016030266083750723,0.13899269020221788,0.09190272524443835
190,-2.689818276049152,-0.2634964586919479,0.01881011988779508,-0.1519451216821035,0.05435341848476145
191,-2.6950882052229908,-0.4598676390385886,0.01577121745415301,0.14808938938395266,0.15421631334864053
192,-2.7042855580037624,-0.12807002566593723,0.018733005241832065,-0.34490858990226114,0.053239318305713115
