,X,v,theta,theta_dot,energy
0,0.0,2.0,0.0,0.0,1.0060237290011609
1,0.04,2.4907432765495487,0.0,-0.7361149148243229,0.8932005604021512
2,0.08981486553099097,2.8453685016166874,-0.014722298296486459,-1.2680527524250307,0.35291784597470727
3,0.14672223556332473,2.722050361137557,-0.04008335334498707,-1.087423787227569,0.179265537577205
4,0.20116324278607586,2.657148779060124,-0.06183182908953845,-1.0019309609547546,0.22240544270008136
5,0.25430621836727835,2.574916182783898,-0.08187044830863355,-0.896984760302092,0.5291411023154761
6,0.3058045420229563,2.372421673706895,-0.09981014351467539,-0.6183034154882243,0.3251061057224956
7,0.3532529754970942,2.5089941035340555,-0.11217621182443988,-0.8514379845353246,0.5775817550343173
8,0.40343285756777536,2.282635449107051,-0.12920497151514637,-0.5469447350575365,0.12468810436536328
9,0.4490855665499164,2.3382364998447165,-0.1401438662162971,-0.6675317891115671,0.3839771934907848
10,0.49585029654681073,2.178093417949979,-0.15349450199852843,-0.47073981006649024,0.015306018258839114
11,0.5394121649058103,2.187134840649321,-0.16290929819985825,-0.5290928796005252,0.030764075031529538
12,0.5831548617187967,2.175534862191456,-0.17349115579186875,-0.5596070564770538,0.35810366336763455
13,0.6266655589626259,2.015809626953485,-0.18468329692140983,-0.3743667771948981,0.04755508528177788
14,0.6669817515016956,1.995216029574742,-0.1921706324653078,-0.39799044532093686,0.21106676867704735
15,0.7068860720931904,1.8940129671644854,-0.20013044137172653,-0.3051313393742422,0.21935571777687124
16,0.7447663314364802,1.7833023919612259,-0.20623306815921139,-0.20082641052844438,0.17535225573892763
17,0.7804323792757047,1.8822798294822525,-0.21024959636978027,-0.40635008496343117,0.19990974813435114
18,0.8180779758653498,1.7808776947486957,-0.2183765980690489,-0.31895534762790667,0.29898263932949437
19,0.8536955297603237,1.6193427125112945,-0.22475570502160705,-0.14610110032801465,0.06834132155489654
20,0.8860823840105496,1.581253379120361,-0.22767772702816735,-0.15592735751676035,0.06581958922750694
21,0.9177074515929569,1.6250261476397145,-0.23079627417850257,-0.28625250010406544,0.11747414376640421
22,0.9502079745457511,1.5573794245796364,-0.2365213241805839,-0.2547262505264016,0.2766209234303814
23,0.9813555630373438,1.3867689163094488,-0.24161584919111193,-0.07482617651546192,0.039225487248636
24,1.0090909413635327,1.3625394460188776,-0.24311237272142117,-0.1098835994202545,0.3165751368370478
25,1.0363417302839102,1.1393495066378623,-0.24531004470982626,0.14428339823987202,0.19325985923528124
26,1.0591287204166675,1.30656816446568,-0.2424243767450288,-0.17043530618376845,0.3515942167823008
27,1.0852600837059811,1.0469448244145265,-0.24583308286870417,0.1370354689651626,0.11642689079470395
28,1.1061989801942718,1.1577168666017446,-0.2430923734894009,-0.09567618557675706,0.2649923843209123
29,1.1293533175263066,0.9378708597999341,-0.24500589720093605,0.15362970791408465,0.11996602097014539
30,1.1481107347223054,1.064592543615852,-0.24193330304265434,-0.10208941470627864,0.26502538976328377
31,1.1694025855946224,0.8250266541857099,-0.24397509133677991,0.1763574216373221,0.03250976125946528
32,1.1859031186783366,0.7904445587359283,-0.24044794290403348,0.15567516587196267,0.05111156678181503
33,1.2017120098530552,0.8560245069821589,-0.23733443958659423,-0.009877277284664587,0.02248396376406736
34,1.2188324999926983,0.8337538966845964,-0.23753198513228752,-0.04653090372557083,0.017518457518375906
35,1.2355075779263902,0.857486837842398,-0.23846260320679893,-0.1503103041567358,0.13619556367460472
36,1.2526573146832383,0.7052291537034372,-0.24146880928993364,0.0021679516286537692,0.08155210744278409
37,1.266761897757307,0.5962118643853455,-0.24142545025736056,0.0906456869934471,0.0429249507131128
38,1.2786861350450138,0.6690067243986582,-0.23961253651749162,-0.08567139679938313,0.12288865316615451
39,1.292066269532987,0.4928106419684817,-0.24132596445347929,0.10129792685656946,0.11074580930775277
40,1.3019224823723565,0.71248844157064,-0.2393000059163479,-0.2889331872360681,0.19936802281296467
41,1.3161722512037692,0.4389273514243777,-0.24507866966106925,0.040030749582506686,0.0029924592367402054
42,1.3249507982322568,0.44888454249139725,-0.24427805466941913,-0.045792726886869195,0.02908083904819639
43,1.3339284890820848,0.38901568895763894,-0.2451939092071565,-0.0297611372040956,0.07010313906977178
44,1.3417088028612376,0.21672926402667855,-0.24578913195123842,0.14957207524169788,3.371419980272933e-05
45,1.3460433881417713,0.21994744321400564,-0.24279769044640445,0.07335327328958173,0.01589553228338452
46,1.3504423370060514,0.15408717351639534,-0.2413306249806128,0.09856282838481092,0.005667665566946273
47,1.3535240804763793,0.12264499978482361,-0.23935936841291658,0.07409483521488286,0.005278337807674331
48,1.3559769804720758,0.08520425948645571,-0.23787747170861892,0.058953184987274275,0.011170927999903133
49,1.357681065661805,-0.035139120773932817,-0.23669840800887343,0.16510673056345748,0.0011493706743714795
50,1.3569782832463264,0.008226391807799514,-0.23339627339760427,0.03293082531703423,8.385008891822831e-05
51,1.3571428110824824,0.01985613454587433,-0.23273765689126358,-0.0520380180199837,0.00436095186755393
52,1.3575399337733998,-0.2183586276958318,-0.23377841725166326,0.22784141253222023,0.015186504157072409
53,1.353172761219483,-0.14429327385313867,-0.22922158900101886,0.051658951787639545,0.012161533965012787
54,1.3502868957424203,-0.22436994763534618,-0.22818840996526607,0.10182963609492814,0.013282708313029738
55,1.3457994967897133,-0.1625029484881239,-0.2261518172433675,-0.05507196965691823,0.045515195904486154
56,1.342549437819951,-0.4276104110158694,-0.22725325663650586,0.26654004589329683,0.049691869018465305
57,1.3339972295996336,-0.3083265647400357,-0.22192245571863992,0.025975788760242202,0.0355312134360424
58,1.327830698304833,-0.41770951365250353,-0.22140293994343507,0.12131549946754111,0.011496143520072008
59,1.3194765080317827,-0.3875455935958174,-0.21897662995408426,0.01261208775262486,0.02231426434799407
60,1.3117255961598664,-0.4405768091093286,-0.21872438819903176,0.02639349759571498,0.07597883812616799
61,1.3029140599776798,-0.6056658494551546,-0.21819651824711744,0.2043337299568146,0.09258222834302311
62,1.2908007429885768,-0.45177181733054805,-0.21410984364798116,-0.08467590782719242,0.0915931475260252
63,1.2817653066419659,-0.6443239092118316,-0.215803361804525,0.13508866654674254,0.09110801783950792
64,1.2688788284577293,-0.5025548336346614,-0.21310158847359015,-0.1355872531301279,0.17254012669699137
65,1.258827731785036,-0.8295101775395167,-0.2158133335361927,0.2815732500898416,0.16651734267330104
66,1.2422375282342457,-0.6283574943000481,-0.21018186853439585,-0.07611416814110139,0.09545787527808108
67,1.2296703783482448,-0.7723911291185025,-0.2117041518972179,0.07384215459707541,0.1304453883713976
68,1.2142225557658748,-0.9343917413355058,-0.21022730880527637,0.2496407595208905,0.038516871225596404
69,1.1955347209391647,-0.8909164794774264,-0.20523449361485857,0.12451105648993685,0.1810858001638495
70,1.1777163913496163,-1.0870039426897464,-0.20274427248505983,0.3525531444089079,0.2118917457806138
71,1.1559763124958213,-0.8918128295588112,-0.19569320959688166,0.006564127596398017,0.12582832608355393
72,1.138140055904645,-1.0264017255065931,-0.1955619270449537,0.14742685830672275,0.06056517108639085
73,1.117612021394513,-1.0814592945902826,-0.19261338987881924,0.17130957527643426,0.18906022939583042
74,1.0959828355027075,-0.907466773456782,-0.18918719837329054,-0.14113165895293694,0.19331789488100298
75,1.077833500033572,-1.1106972943074134,-0.19200983155234927,0.10298505225908902,0.05458096259151162
76,1.0556195541474236,-1.156033759451426,-0.1899501305071675,0.11363534617045085,0.1639337858292925
77,1.032498878958395,-1.2919806441206825,-0.18767742358375847,0.2583777739775993,0.32025320692996007
78,1.0066592660759814,-1.045978429908664,-0.18250986810420647,-0.15899974883584833,0.44315972856693714
79,0.9857396974778082,-1.4529992255536883,-0.18568986308092345,0.38803077949659115,0.44231221930909603
80,0.9566797129667345,-1.1506012450758987,-0.17792924749099162,-0.11204808644739472,0.31949680938778546
81,0.9336676880652165,-1.4172246539295714,-0.1801702092199395,0.22953735797374303,0.2409430545165676
82,0.9053231949866251,-1.2480285875653558,-0.17557946206046465,-0.07283255562732943,0.21483087589043662
83,0.8803626232353179,-1.412695533269709,-0.17703611317301124,0.1190148074920889,0.21212012870732483
84,0.8521087125699237,-1.2635053985186342,-0.17465581702316946,-0.15304979085035228,0.3633300901740395
85,0.826838604599551,-1.5394765035246676,-0.1777168128401765,0.2035209528406788,0.06395665576305548
86,0.7960490745290577,-1.4963145781230067,-0.17364639378336294,0.08782362662032978,0.04935840186380315
87,0.7661227829665975,-1.5260771843841165,-0.17188992125095634,0.0810002864430292,0.125143825634853
88,0.7356012392789152,-1.6036894203746972,-0.17026991552209575,0.14541586538722923,0.07151167029701432
89,0.7035274508714212,-1.5577126735813096,-0.16736159821435118,0.02763022519078022,0.0373991466119739
90,0.6723731973997951,-1.5319673648116963,-0.16680899371053556,-0.05942308648622435,0.042847565662608354
91,0.6417338501035611,-1.556809127357623,-0.16799745544026004,-0.07149238953732232,0.3122537324828085
92,0.6105976675564087,-1.7493309087203917,-0.1694273032310065,0.16406543028209433,0.24936203840093937
93,0.5756110493820008,-1.607589266628946,-0.1661459946253646,-0.09507639709856106,0.48185142519761476
94,0.5434592640494219,-1.89632537046404,-0.16804752256733582,0.283441187220163,0.22753914945665388
95,0.5055327566401411,-1.7763663788389998,-0.16237869882293257,0.056863692397382565,0.18440713042890625
96,0.47000542906336107,-1.87531472787013,-0.16124142497498492,0.15580397034121057,0.024595646378279688
97,0.43249913450595845,-1.885869531176603,-0.1581253455681607,0.1242309779424108,0.2117084790140591
98,0.3947817438824264,-1.99329408465565,-0.1556407260093125,0.23706213770374368,0.18038244160577457
99,0.35491586218931337,-2.0797160586093435,-0.15089948325523764,0.3195542938934426,0.09422504918898275
100,0.3133215410171265,-2.1220387621990326,-0.14450839737736879,0.3381206612842748,0.4350734603001288
101,0.27088076577314585,-2.321179103215394,-0.1377459841516833,0.5913799043678354,0.38158146985009145
102,0.22445718370883797,-2.4812987382580967,-0.1259183860643266,0.7889150052009709,0.3439819196694321
103,0.17483120894367604,-2.6166498046457742,-0.11014008596030717,0.9534119373411275,0.06330747555000817
104,0.12249821285076055,-2.5912034933473413,-0.09107184721348462,0.883157993788398,0.19255532002825476
105,0.07067414298381372,-2.6635656060927193,-0.07340868733771666,0.9645132150840204,0.20001117978965843
106,0.01740283086195933,-2.5881293743645757,-0.054118423036036256,0.8301008401572503,0.3054151081288872
107,-0.03435975662533218,-2.470586931779757,-0.03751640623289125,0.6381422564259589,0.3059300471838707
108,-0.08377149526092731,-2.5922949674020264,-0.024753561104372074,0.8095486124037106,0.24020451098314605
109,-0.13561739460896782,-2.500257611530094,-0.008562588856297862,0.6642580687979489,0.1826903688331645
110,-0.1856225468395697,-2.427981053167631,0.004722572519661116,0.553329835243502,0.1861261996105064
111,-0.23418216790292232,-2.5036191529475915,0.015789169224531156,0.6681741508757154,0.34197905578477267
112,-0.28425455096187413,-2.3689427773388667,0.029152652242045465,0.4708265907194762,0.1279397113844761
113,-0.3316334065086515,-2.422520906386931,0.03856918405643499,0.5597293013684689,0.24199462618005063
114,-0.3800838246363901,-2.3245817030296037,0.049763770083804365,0.4242662811869195,0.42135658273435944
115,-0.4265754586969822,-2.5035704760014954,0.058249095707542754,0.7070415795489666,0.7495209266855343
116,-0.47664686821701213,-2.208579979474517,0.07238992729852209,0.28242184170305173,0.06576647377778523
117,-0.5208184678065024,-2.2388181298493963,0.07803836413258312,0.34892433197173,0.13396689161690759
118,-0.5655948304034903,-2.181155285582718,0.08501685077201772,0.28561330515347483,0.26936985771052185
119,-0.6092179361151447,-2.303502555922486,0.09072911687508721,0.49343623287052374,0.5541638135753967
120,-0.6552879872335945,-2.067912726758922,0.10059784153249768,0.16814276228863662,0.3275040531805847
121,-0.6966462417687729,-2.224309153903336,0.10396069677827041,0.43107727011564834,0.7101367329979633
122,-0.7411324248468396,-1.9117901167611049,0.11258224218058338,-0.004660908972789091,0.5934977736213212
123,-0.7793682271820617,-2.215945999124347,0.1124890240011276,0.48171394259445754,0.5438848778360938
124,-0.8236871471645486,-1.9759134542346137,0.12212330285301676,0.15694278354204177,0.1685244353198219
125,-0.8632054162492409,-2.061060474111052,0.12526215852385758,0.3195271489885466,0.4324356060844665
126,-0.9044266257314619,-1.856923437399615,0.1316527015036285,0.05245157378640297,0.07354618095251517
127,-0.9415650944794542,-1.8201461087121698,0.13270173297935656,0.03635715096580708,0.20158472883880293
128,-0.9779680166536976,-1.9300340584964266,0.1334288759986727,0.23863978459523297,0.5594732696673318
129,-1.0165686978236261,-1.647892120597536,0.13820167169057737,-0.14169962724635773,0.6112534302831334
130,-1.049526540235577,-2.0098312489848302,0.1353676791456502,0.43653468913955795,0.9287393351593582
131,-1.0897231652152735,-1.5570488065889443,0.14409837292844135,-0.1967490802397709,0.46970730865679877
132,-1.1208641413470524,-1.8512810576272045,0.14016339132364594,0.28224352600458946,0.3644301818444336
133,-1.1578897624995965,-1.6601489873552469,0.14580826184373774,0.03943025870260189,0.021133059835679372
134,-1.1910927422467015,-1.6497939361063345,0.1465968670177898,0.06677839690173916,0.22745921265408703
135,-1.2240886209688282,-1.517318734762316,0.14793243495582456,-0.0868577214271715,0.24415313626451624
136,-1.2544349956640746,-1.6757397985937752,0.14619528052728112,0.1915121261514915,0.33715312758477345
137,-1.2879497916359501,-1.480801120168569,0.15002552305031094,-0.05494815743044437,0.13575828936881246
138,-1.3175658140393216,-1.5720648955371828,0.14892655990170206,0.12435202316139507,0.149253124350689
139,-1.3490071119500653,-1.481357514284923,0.15141360036492996,0.03341976007683985,0.01917791116768989
140,-1.3786342622357637,-1.470870035135007,0.15208199556646676,0.06221422337254888,0.10480811569533999
141,-1.4080516629384638,-1.4034799685953043,0.15332628003391774,0.006835816120201441,0.1215010267719837
142,-1.4361212623103699,-1.3213065868019196,0.15346299635632177,-0.07007672405825757,0.06941746321255601
143,-1.4625473940464082,-1.2724221666267364,0.15206146187515662,-0.09760035981291765,0.22264334857083412
144,-1.487995837378943,-1.4444012643162571,0.15010945467889827,0.20192554633883436,0.5198814896507047
145,-1.516883862665268,-1.0937202499136665,0.15414796560567495,-0.27421408448521895,0.24950835236210822
146,-1.5387582676635414,-1.3155867283416909,0.14866368391597057,0.09977976787782233,0.15948890516200254
147,-1.5650700022303752,-1.199194929002822,0.150659279273527,-0.029335903396792096,0.11955731889943991
148,-1.5890539008104316,-1.1043198035828052,0.15007256120559118,-0.12591006899809948,0.0829283464233807
149,-1.6111402968820878,-1.033663793683064,0.1475543598256292,-0.18674694382135565,0.1521332225875536
150,-1.631813572755749,-1.1779478089526163,0.14381942094920208,0.07055104157315395,0.32872836046185144
151,-1.6553725289348014,-0.9073904273688356,0.14523044178066516,-0.2889578014618967,0.20846483971748705
152,-1.673520337482178,-1.1300624709369185,0.13945128575142723,0.08408183365640282,0.28628372074333447
153,-1.6961215869009165,-0.8843969390063111,0.1411329224245553,-0.23997331029537744,0.10179977610613546
154,-1.7138095256810428,-0.9971668122151452,0.13633345621864776,-0.031144891560907162,0.2529746760422727
155,-1.7337528619253457,-0.7522706324443705,0.13571055838742963,-0.3551225811316458,0.09197079080585042
156,-1.7487982745742332,-0.8708091834516403,0.1286081067647967,-0.1391730732973731,0.1518145068544429
157,-1.766214458243266,-0.7039634106077084,0.12582464529884924,-0.34966821876969567,0.09225182509676975
158,-1.7802937264554202,-0.830635869669379,0.11883128092345532,-0.12426672735040162,0.10274611369816514
159,-1.7969064438488078,-0.7125744566064999,0.1163459463764473,-0.26525573733932417,0.09777806700181686
160,-1.8111579329809377,-0.8457466598355167,0.11104083162966082,-0.03271931995954139,0.20693358228026776
161,-1.828072866177648,-0.6092470246448286,0.11038644523046999,-0.35270501893865913,0.14367062640539474
162,-1.8402578066705446,-0.8348026960554817,0.1033323448516968,0.015957001521714864,0.07283037873671949
163,-1.8569538605916542,-0.751150824624451,0.1036514848821311,-0.0785258275879936,0.08626808014469087
164,-1.8719768770841432,-0.6411926363635878,0.10208096833037124,-0.21215889055952836,0.010161863294868411
165,-1.8848007298114149,-0.6274186106764313,0.09783779051918068,-0.20275266439557565,0.056243162044843246
166,-1.8973491020249436,-0.542672591845872,0.09378273723126916,-0.3005453287197437,0.09095151853364229
167,-1.908202553861861,-0.7034107700343237,0.08777183065687429,-0.03296585262693219,0.11119648994438465
168,-1.9222707692625474,-0.5508491537360963,0.08711251360433564,-0.23515555600411966,0.015021529943044402
169,-1.9332877523372693,-0.5781723545925981,0.08240940248425324,-0.16874746553907466,0.014647526309097434
170,-1.9448511994291213,-0.6037276391923461,0.07903445317347174,-0.10634368045717543,0.03226793486802072
171,-1.9569257522129682,-0.553147299360609,0.07690757956432823,-0.15876540679664722,0.06538546680662546
172,-1.9679886982001804,-0.4404505666327116,0.07373227142839528,-0.304722275005725,0.10446348494083307
173,-1.9767977095328346,-0.6657597854125148,0.06763782592828078,0.05398095981034745,0.1337457467618316
174,-1.9901129052410849,-0.47007666013918753,0.06871744512448773,-0.21900220258734449,0.00861005902362877
175,-1.9995144384438686,-0.4885492654581433,0.06433740107274084,-0.17117165818830582,0.03769470485120524
176,-2.0092854237530315,-0.5635416986727559,0.06091396790897473,-0.04001359093736073,0.13677995136895071
177,-2.020556257726487,-0.32844218778963785,0.060113696090227514,-0.3741111714190606,0.0874803730531659
178,-2.0271251014822798,-0.5763093871573448,0.0526314726618463,0.014680834019019817,0.10331628210126664
179,-2.0386512892254265,-0.40199586589326874,0.05292508934222669,-0.23096087562794992,0.08349633632775066
180,-2.046691206543292,-0.6001978088512001,0.048305871829667696,0.08147846678607834,0.17033437374582025
181,-2.058695162720316,-0.3223444203432521,0.04993544116538926,-0.3206190375746666,0.06464095389994506
182,-2.065142051127181,-0.5102090744921088,0.043523060413895934,-0.024498401382606838,0.11037179283384217
183,-2.075346232617023,-0.3002703836852124,0.043033092386243796,-0.3263164859334026,0.08860429145302125
184,-2.0813516402907273,-0.5751885548963238,0.03650676266757574,0.09832682468112469,0.17032777222707182
185,-2.092855411388654,-0.28457624108416846,0.03847329916119824,-0.3265705901657853,0.08075126983712491
186,-2.0985469362103375,-0.5482171452108898,0.03194188735788253,0.07990648192226352,0.09164821224671461
187,-2.1095112791145554,-0.3845021722855847,0.033540016996327804,-0.15615139320624363,0.0357792926755389
188,-2.117201322560267,-0.47411396669516587,0.03041698913220293,-0.011950383617618576,0.104914213031398
189,-2.1266836018941704,-0.25892382545435044,0.03017798145985056,-0.32564507171425905,0.05661780370120486
190,-2.1318620784032576,-0.46114008369555354,0.023665080025565378,-0.01358781430896533,0.03082412909868294
191,-2.1410848800771687,-0.3963562150769878,0.02339332373938607,-0.10377952339797515,0.02885515546682938
192,-2.1490120043787084,-0.4668787877920004,0.021317733271426567,0.008852401914736865,0.0396842146715378
193,-2.1583495801345483,-0.38418983649257166,0.021494781309721305,-0.10888590397704892,0.012302300427129646
