,X,v,theta,theta_dot,energy
0,0.0,0.0,-0.5235987755982988,0.0,0.0
1,0.0,-0.5687518211086796,-0.5235987755982988,0.5918302882931687,0.2869019237233775
2,-0.011375036422173593,-1.0668337039277433,-0.5117621698324354,1.0918576338223085,0.5408601250477864
3,-0.032711710500728464,-1.5681365853813682,-0.48992501715598924,1.6034977131107058,0.8473409765257686
4,-0.06407444220835583,-2.104582551450558,-0.45785506289377514,2.1751674013240767,1.0921752141239451
5,-0.10616609323736698,-2.6223439992809894,-0.4143517148672936,2.741862125294736,1.5041653067493916
6,-0.15861297322298676,-3.1985438291760637,-0.3595144723613989,3.4146592765248855,0.25918766963327744
7,-0.22258384980650803,-3.2799516489239116,-0.2912212868309012,3.425529111122612,1.7088139960284283
8,-0.28818288278498627,-2.7497570913852916,-0.22271070460844897,2.5793099306822764,0.9814207509264509
9,-0.3431780246126921,-2.3859999842335866,-0.17112450599480344,1.9822131999081316,0.28495201840049794
10,-0.3908980242973638,-2.2634744745899904,-0.13148024199664082,1.751043947592793,0.22781309711166017
11,-0.43616751378916363,-2.1603851819817623,-0.09645936304478496,1.5592007519777216,0.5435568438690837
12,-0.47937521742879885,-1.905649219277588,-0.06527534800523052,1.1505579598500186,0.38023249047326096
13,-0.5174882018143506,-2.104885221418371,-0.042264188808230144,1.4295981730591927,0.9303043489993122
14,-0.5595859062427181,-1.6594983821438756,-0.01367222534704629,0.7496925358181776,0.5515444313891156
15,-0.5927758738855956,-1.9903528682833447,0.0013216253693172624,1.2419083718194917,0.8722608667476253
16,-0.6325829312512625,-1.5503356980839604,0.0261597928057071,0.5822717506971824,0.2105137971802099
17,-0.6635896452129417,-1.6854689993187422,0.03780522781965075,0.7925924511073232,0.3066421791267858
18,-0.6972990251993165,-1.5046382899519284,0.05365707684179721,0.532652290762294,0.035335226225439886
19,-0.727391790998355,-1.5286718830149213,0.0643101226570431,0.5844184088029559,0.2037910016654623
20,-0.7579652286586535,-1.3972546781620285,0.07599849083310221,0.4065942427728654,0.07067285349061973
21,-0.785910322221894,-1.4483120770237945,0.08413037568855952,0.5052813296032654,0.39078905479560583
22,-0.8148765637623699,-1.182162173692397,0.09423600228062483,0.1321736451278644,0.33527403084624485
23,-0.8385198072362179,-1.4614235561865134,0.09687947518318211,0.5768715222124574,0.6707723999766593
24,-0.8677482783599482,-1.007155677492401,0.10841690562743127,-0.0728970703568319,0.5095383677556621
25,-0.8878913919097962,-1.5002449270891203,0.10695896422029463,0.6942063120680805,0.7498005102722944
26,-0.9178962904515786,-1.0041286118084554,0.12084309046165624,-0.01432944594245733,0.3131389356994939
27,-0.9379788626877478,-1.3095695405055574,0.1205565015428071,0.47593220110745355,0.7232710483994053
28,-0.9641702534978589,-0.7640280395540954,0.13007514556495617,-0.30108280880151234,0.3591061688404633
29,-0.9794508142889408,-1.2158527049874004,0.12405348938892592,0.40906311269641854,0.5948736558606491
30,-1.0037678683886888,-0.733451188415946,0.13223475164285428,-0.2726001918783238,0.35586428477281756
31,-1.0184368921570077,-1.2002805398793974,0.1267827478052878,0.4602943226132034,0.7077230809273984
32,-1.0424425029545956,-0.6173692961510138,0.13598863425755187,-0.36988037176172567,0.29343224168819065
33,-1.054789888877616,-1.0701819888325623,0.12859102682231735,0.34292551791694964,0.4728620383505608
34,-1.0761935286542672,-0.6351242923207099,0.13544953718065633,-0.26657132799102806,0.31329930534934736
35,-1.0888960145006814,-1.1087269943231202,0.13011811062083578,0.4770264497219146,0.5497903238895057
36,-1.1110705543871437,-0.6178068004334651,0.13965863961527408,-0.2149820368385243,0.29211686241252827
37,-1.123426690395813,-1.073312041698262,0.13535899887850358,0.5025496300567871,0.5809398730945298
38,-1.1448929312297782,-0.5364865647146085,0.14540999147963932,-0.2556488966332815,0.32879315314062224
39,-1.1556226625240704,-1.1229982691701492,0.1402970135469737,0.657434148645038,0.5971644717155877
40,-1.1780826279074734,-0.592868651932904,0.15344569651987444,-0.08883495790303575,0.18653801178609972
41,-1.1899400009461314,-0.8994194046109216,0.15166899736181372,0.41052455543334515,0.5157067525395842
42,-1.2079283890383499,-0.3313876874703179,0.1598794884704806,-0.38732183551799465,0.20926762483252537
43,-1.2145561427877563,-0.9178966105996571,0.1521330517601207,0.5280260401932857,0.5325383811529107
44,-1.2329140749997494,-0.3399481528171363,0.16269357256398642,-0.28432896380390915,0.17791641863536897
45,-1.2397130380560921,-0.8334077888168498,0.15700699328790824,0.4937071456293233,0.4475823672984125
46,-1.2563811938324292,-0.29828680420812237,0.1668811362004947,-0.2531304698047978,0.1663986597060361
47,-1.2623469299165917,-0.8238551675249565,0.16181852680439873,0.5731056315153155,0.47890191010480515
48,-1.2788240332670908,-0.24182356935301097,0.17328063943470504,-0.241168917565329,0.12365698916475656
49,-1.283660504654151,-0.7207551313837628,0.16845726108339845,0.5171599671002097,0.4103802393468969
50,-1.2980756072818262,-0.15033003334220063,0.17880046042540265,-0.2770732605963534,0.09763778067217951
51,-1.3010822079486704,-0.7368351055534704,0.1732589952134756,0.6409467113325752,0.4243699766067831
52,-1.3158189100597397,-0.15583218847938884,0.1860779294401271,-0.16682597091902862,0.07666783311885036
53,-1.3189355538293275,-0.6153610295315556,0.18274141002174654,0.5649600485227244,0.35408131320750014
54,-1.3312427744199586,-0.0339064445909959,0.19404061099220102,-0.23927185670165796,0.018988093427969175
55,-1.3319209033117785,-0.4509880444947204,0.18925517385816787,0.43130018028080996,0.23639257562974234
56,-1.3409406642016728,0.0791913605232415,0.19788117746378406,-0.2944596413386479,0.034488849898285365
57,-1.3393568369912079,-0.43145953760911027,0.1919919846370111,0.5143670605430183,0.2451192941127325
58,-1.3479860277433902,0.14972092942936133,0.20227932584787145,-0.2852862886016493,0.07506243750391499
59,-1.3449916091548029,-0.3860004661322961,0.19657360007583846,0.5609771252627803,0.1936783954709852
60,-1.3527116184774488,0.1332523431361856,0.20779314258109408,-0.1454809166622114,0.02865449701754147
61,-1.3500465716147252,-0.08945000819484145,0.20488352424784984,0.24203914225694634,0.04721027662365303
62,-1.3518355717786221,0.49131169228077615,0.20972430709298875,-0.551067972893636,0.2570689990260321
63,-1.3420093379330067,-0.047130978584924044,0.19870294763511603,0.30010671633418284,0.020259802677069692
64,-1.342951957504705,0.5338205578732464,0.20470508196179968,-0.4961388927566175,0.30703036019554353
65,-1.3322755463472402,-0.05257790322326383,0.19478230410666733,0.4248575109970061,0.020188496529070104
66,-1.3333271044117054,0.5285058409205871,0.20327945432660746,-0.3733809449810107,0.26119992044585566
67,-1.3227569875932936,0.029347314654481538,0.19581183542698724,0.41929357800225253,0.02817077663130914
68,-1.322170041300204,0.5973356392753619,0.2041977069870323,-0.3592060588976109,0.3328763010664575
69,-1.3102233285146967,0.03755753515528226,0.19701358580908007,0.522633954578621,0.036497608766353676
70,-1.309472177811591,0.6185936886723671,0.20746626490065248,-0.2745124883780039,0.1530201835754833
71,-1.2971003040381437,0.37029207544631015,0.2019760151330924,0.15051150739001595,0.2261954158835754
72,-1.2896944625292175,0.9511335340773394,0.20498624528089274,-0.6440617051555056,0.5469330968576839
73,-1.2706717918476707,0.37165192985610374,0.19210501117778261,0.2668072592982669,0.200645628727312
74,-1.2632387532505487,0.8779950758787889,0.19744115636374795,-0.4226036862135403,0.24402270068372306
75,-1.2456788517329729,0.5989536445816475,0.18898908263947714,0.04549781208142584,0.3203934346125972
76,-1.23369977884134,1.115086157136286,0.18989903888110565,-0.6596834542157894,0.49762395858165076
77,-1.2113980556986141,0.6664727650558859,0.17670536979678986,0.056635116118057494,0.37056984828051875
78,-1.1980686003974965,1.203178485023566,0.177838072119151,-0.6842058045539083,0.6024673776087687
79,-1.174005030697025,0.7006277399132825,0.16415395602807284,0.10974053533493311,0.4233287945591462
80,-1.1599924758987594,1.2825462721781795,0.1663487667347715,-0.7033583286183113,0.5926327786927947
81,-1.134341550455196,0.8190340764868664,0.15228160016240527,0.030993718901893175,0.41433824870128994
82,-1.1179608689254585,1.30876942742376,0.15290147454044314,-0.6505101939609348,0.5755467368413864
83,-1.0917854803769833,0.8685762337620959,0.13989127066122445,0.04685429023372323,0.5169770994110381
84,-1.0744139557017414,1.4450533689640932,0.14082835646589892,-0.7684201238386599,0.8120574109303423
85,-1.0455128883224596,0.8822454068509715,0.1254599539891257,0.10870099165155667,0.5077286526275344
86,-1.0278679801854402,1.4381868669408484,0.12763397382215685,-0.6818682910347098,0.6226764167370478
87,-0.9991042428466232,1.0053136478243445,0.11399660800146266,-0.00041746528906572156,0.44526169831239626
88,-0.9789979698901363,1.4353994032952961,0.11398825869568135,-0.6079163788486359,0.5948799188731058
89,-0.9502899818242304,1.021994893810649,0.10182993111870864,0.041606143774713056,0.5357728248816206
90,-0.9298500839480174,1.5306761448826682,0.1026620539942029,-0.6875768483688768,0.5608767976463696
91,-0.899236561050364,1.164639252858059,0.08891051702682537,-0.11128270013434749,0.6045069809696905
92,-0.8759437759932028,1.6716709115533852,0.08668486302413841,-0.8427208073347736,0.9201889006063376
93,-0.8425103577621351,1.121206264543062,0.06983044687744294,0.005329296608203804,0.5621225042895442
94,-0.8200862324712739,1.609055834050974,0.06993703280960702,-0.7041481398020815,0.7467793076334416
95,-0.7879051157902544,1.1462938335170956,0.05585407001356539,0.008842690730491598,0.6880170871315823
96,-0.7649792391199124,1.7307270579118352,0.05603092382817522,-0.8500275092649225,0.9561679650116166
97,-0.7303646979616757,1.1788069315253744,0.03903037364287677,-0.006982056420636429,0.6528751151185666
98,-0.7067885593311682,1.7186685775270827,0.038890732514464045,-0.804685780272081,0.9381644348423819
99,-0.6724151877806266,1.1740685651790068,0.022797016909022423,0.023027533242802933,0.669871389664298
100,-0.6489338164770464,1.7298645394957268,0.023257567573878483,-0.8037480581304381,0.789483514616095
101,-0.6143365256871318,1.2747053379898956,0.007182606411269721,-0.11435679074409,0.525550175192574
102,-0.5888424189273339,1.6784834499323709,0.004895470596387921,-0.717896667462347,0.9360422392664044
103,-0.5552727499286865,1.1235600746590833,-0.00946246275285902,0.11591768375682021,0.5331968615675371
104,-0.5328015484355048,1.584517175917946,-0.007144109077722616,-0.5782689359443184,0.6095100438729185
105,-0.5011112049171458,1.203004840904308,-0.018709487796608984,-0.0081153873682972,0.7215816148695566
106,-0.4770511080990596,1.7886239544455291,-0.018871795543974928,-0.8918905859209938,0.8224509787757569
107,-0.441278629010149,1.3298841539933912,-0.036709607262394806,-0.20945139346873598,0.1590400926889108
108,-0.4146809459302812,1.4479101937945584,-0.04089863513176953,-0.3971613787501319,0.328027397368814
109,-0.38572274205439006,1.224702709189733,-0.04884186270677217,-0.07465097877330729,0.5036065262136249
110,-0.3612286878705954,1.6276224690334882,-0.050334882282238314,-0.6926636788429666,0.6609851721577871
111,-0.32867623848992567,1.224392389610776,-0.06418815585909765,-0.10337682314571817,0.43087808758608814
112,-0.30418839069771014,1.5698541616946378,-0.06625569232201202,-0.6393607017548318,0.7007578241369444
113,-0.2727913074638174,1.127228488702393,-0.07904290635710866,0.0036561315530984073,0.4602505298574533
114,-0.25024673768976957,1.5264608881482795,-0.0789697837260467,-0.6165371276772614,0.7474734426609659
115,-0.219717519926804,1.0411446074238753,-0.09130052627959193,0.08597557328754668,0.5371556150757572
116,-0.19889462777832648,1.543610222618627,-0.089581014813841,-0.691388774849713,0.46296081987772597
117,-0.16802242332595393,1.2463626435605715,-0.10340879031083525,-0.2736068232382504,0.0890433901508375
118,-0.14309517045474252,1.3181702126364927,-0.10888092677560025,-0.4110908203964775,0.30226248916833576
119,-0.11673176620201266,1.0929882060132103,-0.1171027431835298,-0.10726577354422212,0.2967687411604407
120,-0.09487200208174845,1.360460591463971,-0.11924805865441424,-0.5400761712059305,0.1934484234024902
121,-0.06766279025246903,1.221010887412819,-0.13004958207853284,-0.36736299312856946,0.08661096405817649
122,-0.04324257250421265,1.1527673571537724,-0.13739684194110424,-0.30398901707424575,0.3731570030249369
123,-0.020187225361137203,1.4738633649425823,-0.14347662228258914,-0.8213616613717863,0.3919248563685211
124,0.009290041937714443,1.210099487187077,-0.15990385551002487,-0.47181870747490473,0.20067774029161217
125,0.03349203168145598,1.0479501525642227,-0.16934022965952297,-0.2785092593910868,0.14919038669852114
126,0.05445103473274043,1.1905880653916996,-0.1749104148473447,-0.5389541502711221,0.18518256285313153
127,0.07826279604057443,1.038453167362591,-0.18568949785276714,-0.3653955408967491,0.13270971139557805
128,0.09903185938782624,0.9146717956952252,-0.19299740867070211,-0.23719485847628405,0.07879925722760603
129,0.11732529530173075,1.0021577412984433,-0.19774130584022778,-0.42237699030018155,0.1621378020356353
130,0.1373684501276996,0.8444696956918056,-0.2061888456462314,-0.24821208272162776,0.047750700084545725
131,0.15425784404153572,0.7915968626799431,-0.21115308730066396,-0.23077364394123265,0.03918624915444782
132,0.17008978129513458,0.7457433291345545,-0.21576856017948862,-0.2251396912289195,0.06952499093701421
133,0.18500464787782567,0.6568398234878507,-0.220271354004067,-0.15782153617215594,0.0942754258547935
134,0.19814144434758268,0.8009250202179372,-0.22342778472751013,-0.4329646558707326,0.3668661412815529
135,0.21415994475194144,0.3477706371805063,-0.23208707784492477,0.16472867940626607,0.1954133494436603
136,0.22111535749555158,0.8858348759276382,-0.22879250425679945,-0.6883508768874127,0.43034589546847374
137,0.23883205501410434,0.39991078061634044,-0.2425595217945477,-0.04513848989167135,0.02973848919594168
138,0.24683027062643115,0.47584574047841205,-0.24346229159238114,-0.2263218676546238,0.18312425637035443
139,0.2563471854359994,0.09730357909286208,-0.2479887289454736,0.2538731946620128,0.05794784111025498
140,0.2582932570178566,0.6194663802086957,-0.24291126505223334,-0.5775737319871925,0.3121391679355905
141,0.27068258462203054,0.11223153907646943,-0.2544627396919772,0.0902256558819381,0.034631131182248406
142,0.2729272154035599,0.40512282961693263,-0.25265822657433845,-0.40897134220079956,0.204487377523216
143,0.28102967199589857,-0.104430517312668,-0.26083765341835446,0.2575984976561392,0.03541575455717965
144,0.2789410616496452,0.2684000098647301,-0.2556856834652317,-0.35855005848384813,0.14233511211673244
145,0.2843090618469398,-0.2752128236187351,-0.26285668463490863,0.3560047949093328,0.09887795235966923
146,0.27880480537456515,0.09814535916537259,-0.255736588736722,-0.26118912632520475,0.050254325478664666
147,0.2807677125578726,-0.4614532507554562,-0.2609603712632261,0.47653956062155756,0.15151254949761786
148,0.27153864754276347,-0.1240119875018535,-0.2514295800507949,-0.08833953538417283,0.057740945608256315
149,0.2690584077927264,-0.5590296733267264,-0.25319637075847834,0.4705261696997942,0.095385301057982
150,0.25787781432619183,-0.38353587497279906,-0.24378584736448244,0.14203155002637974,0.18373194529599457
151,0.25020709682673586,-0.8533060517447457,-0.24094521636395486,0.7548857353803973,0.20246007760245507
152,0.23314097579184095,-0.6102252258038441,-0.2258475016563469,0.3306428915121336,0.06200100843631823
153,0.22093647127576407,-0.7083243061135228,-0.21923464382610422,0.4082184928603595,0.09493881734556434
154,0.20676998515349362,-0.571590216073171,-0.21107027396889702,0.14408672111046805,0.17753407866136883
155,0.1953381808320302,-0.8741406358869606,-0.20818853954668767,0.5262457868637895,0.16202354539564326
156,0.17785536811429098,-0.6860728678515378,-0.19766362380941188,0.1894693354774757,0.2199886022219858
157,0.16413391075726022,-0.9991629980809067,-0.19387423709986237,0.592224404595497,0.15254610325868356
158,0.1441506507956421,-0.8439396145703679,-0.18202974900795243,0.3071088281611925,0.03167577958826006
159,0.12727185850423473,-0.8785436719426523,-0.17588757244472858,0.3049356457128705,0.15131882701601482
160,0.10970098506538167,-1.046402857747601,-0.16978885953047118,0.5013949978221166,0.12805954732213065
161,0.08877292791042965,-1.165823685684691,-0.15976095957402886,0.6282719869274479,0.016408754024554464
162,0.06545645419673582,-1.1776827534567726,-0.1471955198354799,0.5990638856064644,0.12624703506459478
163,0.041902799127600365,-1.068789748451343,-0.13521424212335062,0.39437130442576945,0.10972881153777589
164,0.020527004158573506,-0.9651763486310542,-0.12732681603483523,0.20073784115422513,0.16443094857984153
165,0.0012234771859524242,-1.1309615013232963,-0.12331205921175073,0.41006947748627753,0.024480027087504908
166,-0.021395752840513503,-1.1506779557895737,-0.11511066966202518,0.4032576526895255,0.16302772375499577
167,-0.04440931195630497,-1.2893735870458818,-0.10704551660823468,0.5761564363820948,0.041598583971765184
168,-0.07019678369722261,-1.255787863002845,-0.09552238788059278,0.494654899864975,0.12101514339511518
169,-0.0953125409572795,-1.3501085978438585,-0.08562928988329328,0.6074501254560056,0.2843035957527051
170,-0.12231471291415667,-1.139312492925773,-0.07348028737417317,0.2672702299759598,0.2657979279285308
171,-0.14510096277267212,-1.3682308533534395,-0.06813488277465397,0.5881374102495847,0.31087655902121447
172,-0.17246557983974092,-1.141279089463199,-0.05637213456966228,0.2284834928908906,0.35310515579948143
173,-0.1952911616290049,-1.44502063405953,-0.051802464711844465,0.66680744398374,0.5533907027084626
174,-0.22419157431019548,-1.0627569223933109,-0.03846631583216967,0.07895794265615164,0.3927523179406531
175,-0.2454467127580617,-1.4239340236065015,-0.03688715697904663,0.609016521973915,0.3520051992786965
176,-0.2739253932301917,-1.1774873553588026,-0.024706826539568332,0.22875562415191109,0.21665400549844901
177,-0.29747514033736777,-1.3582344132591482,-0.02013171405653011,0.49253039748999367,0.3254825841965875
178,-0.32463982860255075,-1.1202481587850024,-0.010281106106730236,0.12970502854774957,0.3239475182522782
179,-0.3470447917782508,-1.403712986066734,-0.007687005535775244,0.5518572058050013,0.45165068557466825
180,-0.37511905149958547,-1.0839882468371247,0.003350138580324782,0.07002430893438988,0.2763222253700783
181,-0.396798816436328,-1.3334636459029268,0.0047506247590125795,0.44522024645829245,0.28721465997540685
182,-0.4234680893543865,-1.1201565539068412,0.01365502968817843,0.12665989738856187,0.2537505296929258
183,-0.44587122043252336,-1.3424969235105269,0.016188227635949667,0.4641538130854917,0.3646696752992578
184,-0.4727211589027339,-1.0734903637397855,0.025471303897659503,0.06545597496625216,0.3118222397238999
185,-0.4941909661775296,-1.3580196069404529,0.026780423396984547,0.4995991516527712,0.4840930212166044
186,-0.5213513583163387,-1.0047286641589086,0.03677240643003997,-0.022274737657758725,0.426157439278722
187,-0.5414459315995169,-1.4186048973766454,0.036326911676884795,0.6089285749958044,0.7483057824867103
188,-0.5698180295470499,-0.8943031317769076,0.04850548317680088,-0.16632744831018997,0.40132215905631125
189,-0.587704092182588,-1.3290642672105017,0.045178934210597085,0.4993022523407624,0.5976134675399465
190,-0.614285377526798,-0.8834726578396919,0.05516497925741233,-0.1551250543787256,0.4246426103683804
191,-0.6319548306835918,-1.3493780558858148,0.05206247816983782,0.5588802178056951,0.7944100479758679
192,-0.6589423918013081,-0.7648574710157409,0.06324008252595172,-0.30141321501035656,0.4671199267979109
193,-0.6742395412216229,-1.3509509809469271,0.05721181822574459,0.5945498531637562,0.6384737353804475
194,-0.7012585608405615,-0.8813860337103228,0.06910281528901971,-0.09183404979891219,0.3597930280462235
