,X,v,theta,theta_dot,energy
0,0.0,0.0,0.3490658503988659,0.0,0.0
1,0.0,0.5758278839721624,0.3490658503988659,-0.7110978979793615,0.31109650212053475
2,0.011516557679443248,1.123213998975074,0.33484389243927865,-1.3821060153249691,0.6381613943745885
3,0.03398083765894473,1.7001819849507263,0.30720177213277927,-2.1028774042223306,0.9148366967767706
4,0.06798447735795926,2.2485663793296453,0.26514422404833266,-2.798040384933988,1.2578085910117425
5,0.11295580494455217,2.821546366895509,0.2091834163496529,-3.550433698989653,1.3878146769372819
6,0.16938673228246234,2.314279646340129,0.13817474236985983,-2.7450682320768176,0.294038503839171
7,0.21567232520926494,2.444127943112043,0.08327337772832347,-2.8974900782838797,0.8201973926647127
8,0.2645548840715058,2.0977869636409907,0.02532357616264587,-2.355324745444933,0.26206097270780315
9,0.3065106233443256,1.969137566385353,-0.021782918746252787,-2.1549681861303065,0.34679803654913405
10,0.3458933746720327,1.7885513569397395,-0.06488228246885891,-1.890556806599656,0.3051759777556602
11,0.3816644018108275,1.6144705255312162,-0.10269341860085203,-1.6490469993561268,0.4072442302318315
12,0.41395381232145184,1.3578720693996278,-0.13567435858797455,-1.2963159118764302,0.2402428046579862
13,0.4411112537094444,1.17946084246857,-0.16160067682550316,-1.0709243781786422,0.28814470609282666
14,0.46470047055881575,0.9335788319154079,-0.183019164389076,-0.7542108374570722,0.17708560019044717
15,0.4833720471971239,0.7445222574273626,-0.19810338113821746,-0.5288699612584158,0.07936667482627749
16,0.49826249234567116,0.8543216814938761,-0.20868078036338578,-0.7482100358042425,0.28559879600492577
17,0.5153489259755487,0.5188293010615639,-0.22364498107947062,-0.3167970192172303,0.0880216003743458
18,0.52572551199678,0.691404897678186,-0.2299809214638152,-0.6344184335212578,0.2885156837679822
19,0.5395536099503437,0.2717774293323298,-0.24266929013424038,-0.08856987989323872,0.08776681847467545
20,0.5449891585369904,0.5934171253979762,-0.24444068773210514,-0.6275399684410444,0.2435305868902008
21,0.5568575010449499,0.17853822582519163,-0.256991487100926,-0.0948733985882182,0.006519840923375296
22,0.5604282655614538,0.14573734309156194,-0.2588889550726904,-0.12201446037786928,0.027529784280641532
23,0.563343012423285,-0.041149873494870176,-0.2613292442802478,0.0737083753860445,0.003115120321528739
24,0.5625200149533875,0.042183020725024625,-0.2598550767725269,-0.12300619197904084,0.012761197481346244
25,0.563363675367888,-0.2911351557946976,-0.2623152006121077,0.28464494247915023,0.004173489290938538
26,0.5575409722519941,-0.27303963867324504,-0.2566223017625247,0.18219090787714998,0.027960192074919073
27,0.5520801794785292,-0.3719873550134789,-0.2529784836049817,0.25113050618746824,0.06524647206983407
28,0.5446404323782595,-0.5441033737591109,-0.24795587348123235,0.4275022824722664,0.023751416698533583
29,0.5337583649030774,-0.5846729772134502,-0.23940582783178702,0.4143412018869457,0.06711698807533721
30,0.5220649053588083,-0.6965644720683256,-0.2311190037940481,0.5076766847415745,0.02119870941440757
31,0.5081336159174419,-0.724000464545435,-0.2209654700992166,0.48039074320166203,0.03554684764695179
32,0.4936536066265332,-0.7701748934125975,-0.21135765523518335,0.4835318937267615,0.020343649066795023
33,0.4782501087582812,-0.7408648915798639,-0.20168701736064812,0.3788677087094364,0.01784716031793144
34,0.4634328109266839,-0.7620662147924063,-0.1941096631864594,0.3511302717127001,0.008077471632414292
35,0.4481914866308358,-0.7488529437504787,-0.18708705775220538,0.27497204634114797,0.05956949315236957
36,0.43321442775582625,-0.8249551594247184,-0.18158761682538244,0.33245013015916675,0.06694312171972075
37,0.4167153245673319,-0.902863143485363,-0.1749386142221991,0.3942968413577063,0.021905240737937492
38,0.39865806169762463,-0.9245259990581505,-0.16705267739504498,0.3751251511911565,0.13326989041022058
39,0.3801675417164616,-1.0651531069100044,-0.15955017437122185,0.5342439594509276,0.15190090913187196
40,0.3588644795782615,-0.9208765307873283,-0.1488652951822033,0.27386882470490814,0.026674525490432102
41,0.34044694896251493,-0.8901902052677056,-0.14338791868810513,0.18474349660577488,0.03779264761368806
42,0.32264314485716084,-0.9299168399025162,-0.13969304875598965,0.20171016873854572,0.06657627280027961
43,0.3040448080591105,-0.9983842819150244,-0.13565884538121872,0.26247458433769016,0.0437242484748391
44,0.28407712242081,-1.0396553483221715,-0.1304093536944649,0.2840509325111813,0.055238675736134675
45,0.2632840154543666,-1.0902361698801237,-0.12472833504424129,0.3210461536295852,0.07646680348927068
46,0.2414792920567641,-1.1577504850274412,-0.11830741197164958,0.3849557750173321,0.19386017621423723
47,0.2183242823562153,-1.3217711932021705,-0.11060829647130294,0.5945657436142795,0.0572117633059828
48,0.19188885849217188,-1.3633038304500666,-0.09871698159901734,0.6240314263188804,0.21254269204959764
49,0.16462278188317056,-1.2067281040281383,-0.08623635307263974,0.3613356079845425,0.16763849564975725
50,0.14048821980260778,-1.0681884225823934,-0.07900964091294889,0.12897624142690325,0.05177015351235505
51,0.11912445135095992,-1.114583592924064,-0.07643011608441082,0.1751472184998681,0.041133044010346
52,0.09683277949247865,-1.149741615160805,-0.07292717171441346,0.20528171005780535,0.0710491460562438
53,0.07383794718926255,-1.209459813572339,-0.06882153751325736,0.27319932181655704,0.1545060800212438
54,0.04964875091781577,-1.334360005479463,-0.06335755107692621,0.43988853799544725,0.08284128874797449
55,0.02296155080822651,-1.2719953198009484,-0.05455978031701727,0.3279145435324176,0.02011774171572363
56,-0.0024783555877924586,-1.2556108408359479,-0.048001489446368915,0.28734177721159343,0.0767591789956611
57,-0.027590572404511418,-1.3151854830356933,-0.04225465390213705,0.3624937898978784,0.06690402001716864
58,-0.053894282065225285,-1.2643334166160214,-0.03500477810417948,0.2738646038937117,0.10501988780280938
59,-0.07918095039754572,-1.3456699716922627,-0.029527486026305245,0.3855053926198688,0.16361578958396747
60,-0.10609434983139097,-1.2250728789799892,-0.02181737817390787,0.19600878730147042,0.19103944353037944
61,-0.13059580741099075,-1.3780077367684398,-0.017897202427878463,0.41894267830721943,0.267826812106505
62,-0.15815596214635955,-1.185484346170092,-0.009518348861734074,0.12494234491120221,0.2773871536910276
63,-0.18186564906976138,-1.414724661220047,-0.00701950196351003,0.4659888885920023,0.2665800605440444
64,-0.21016014229416233,-1.2279953824974785,0.0023002758083300167,0.18383815444129187,0.033344023558109
65,-0.23472004994411189,-1.2547007280298859,0.005977038897155854,0.2245723472523301,0.05103870321241399
66,-0.2598140645047096,-1.2947974001851097,0.010468485842202457,0.2864735201211642,0.10575506189845814
67,-0.2857100125084118,-1.2144530847857187,0.016197956244625743,0.1690413292369572,0.04680738915213672
68,-0.3099990742041262,-1.2525254449377774,0.019578782829364885,0.23090436862949476,0.09081064526124767
69,-0.33504958310288174,-1.3241344120944147,0.02419687020195478,0.3440530270993646,0.3455721738538834
70,-0.36153227134477006,-1.066833296522596,0.03107793074394207,-0.03467248095521669,0.3287521950247851
71,-0.382868937275222,-1.3674551902386634,0.03038448112483774,0.4251780540726985,0.6210723139392534
72,-0.41021804107999527,-0.9184638360726272,0.03888804220629171,-0.2390664508660828,0.5566593787483314
73,-0.4285873178014478,-1.5033388632193263,0.03410671318897005,0.6490130053775285,0.7887391327129876
74,-0.4586540950658343,-0.9817594710581051,0.04708697329652062,-0.12287564485413693,0.3597119591094235
75,-0.4782892844869964,-1.3378141223999038,0.04462946039943788,0.4244528178862945,0.37513535282442195
76,-0.5050455669349945,-1.0609177208934173,0.053118516757163774,0.02263849238517862,0.14180784312401773
77,-0.5262639213528628,-1.192182539668248,0.053571286604867346,0.23486750647027504,0.2721547417202439
78,-0.5501075721462277,-0.9682693303107732,0.05826863673427285,-0.08477804340438183,0.4247084566502887
79,-0.5694729587524432,-1.3952313441682058,0.056573075866185214,0.571699344892721,0.8124535325262568
80,-0.5973775856358073,-0.8172928989015117,0.06800706276403963,-0.27719780473012856,0.4208747871575675
81,-0.6137234436138376,-1.312882859525635,0.06246310666943706,0.48444740367483274,0.5465484857482438
82,-0.6399811008043502,-0.9008244058041843,0.07215205474293371,-0.1140826772122372,0.3328029709217981
83,-0.6579975889204339,-1.2600921608659275,0.06987040119868897,0.4446111283099604,0.7072643827208152
84,-0.6831994321377525,-0.7047849605062924,0.07876262376488817,-0.36579210663375783,0.378580519129511
85,-0.6972951313478783,-1.2176783386833572,0.07144678163221302,0.4242951509033752,0.6464821437598607
86,-0.7216486981215455,-0.6926066201658196,0.07993268465028053,-0.34031556669636176,0.3715441256387431
87,-0.7355008305248619,-1.205458317142181,0.0731263733163533,0.4499809323804921,0.6891226799779184
88,-0.7596099968677056,-0.639387452058728,0.08212599196396314,-0.37537609514649883,0.3375985380035504
89,-0.7723977459088801,-1.1420769660765897,0.07461847006103317,0.40023465443223805,0.5374887145404338
90,-0.7952392852304119,-0.6767665406057124,0.08262316314967794,-0.2738713002815133,0.3917360821420537
91,-0.8087746160425261,-1.2322121733895555,0.07714573714404767,0.5807184995734137,0.620615601136799
92,-0.8334188595103172,-0.7314123966050113,0.08876010713551594,-0.14558854882221262,0.25961779233791166
93,-0.8480471074424175,-1.0756821181773437,0.08584833615907168,0.3948443790628432,0.6208667192126459
94,-0.8695607498059644,-0.5045793913462325,0.09374522374032855,-0.43344648608698255,0.31452164592758797
95,-0.8796523376328891,-1.0908887527591578,0.0850762940185889,0.4696766918183445,0.5674340332892158
96,-0.9014701126880722,-0.5747986687084614,0.09446982785495579,-0.2766762698802159,0.3173851530987939
97,-0.9129660860622414,-1.1030079428468396,0.08893630245735147,0.539837583935342,0.6471474546581744
98,-0.9350262449191782,-0.5192225774976447,0.0997330541360583,-0.30626676860805424,0.2763445413196379
99,-0.9454106964691311,-1.0260163826436104,0.09360771876389722,0.4794193176480347,0.6025980586140565
100,-0.9659310241220034,-0.4423373475079605,0.10319610511685791,-0.3647857153675499,0.24455760998343423
101,-0.9747777710721626,-0.9633842497539367,0.09590039080950691,0.44291252171442164,0.523687403321818
102,-0.9940454560672413,-0.4235009352758047,0.10475864124379534,-0.3350398521181186,0.23545662998328787
103,-1.0025154747727574,-0.948242509616207,0.09805784420143297,0.47850016361579484,0.45839142321709925
104,-1.0214803249650815,-0.46732244520239985,0.10762784747374887,-0.21063172505152317,0.2612439198080131
105,-1.0308267738691295,-1.0028958567486899,0.10341521297271841,0.6196614518338326,0.556542393433392
106,-1.0508846910041032,-0.44781422615654776,0.11580844200939507,-0.17816272660393906,0.18062417640221146
107,-1.0598409755272342,-0.8356410879437319,0.11224518747731628,0.433652518728306,0.47125788739908975
108,-1.0765537972861088,-0.27433990661568086,0.1209182378518824,-0.37007011770269427,0.15181840614230394
109,-1.0820405954184225,-0.7844059540128974,0.11351683549782851,0.42490581878262434,0.414686297542059
110,-1.0977287144986805,-0.257798273793027,0.12201495187348099,-0.32661941680504536,0.1482484704868133
111,-1.102884679974541,-0.789625755480205,0.11548256353738008,0.5009743766444479,0.4266994539341831
112,-1.1186771950841452,-0.249024168905565,0.12550205107026904,-0.2706503635322639,0.117836580929711
113,-1.1236576784622565,-0.6903654756714521,0.12008904379962376,0.4229556572128963,0.397233070996023
114,-1.1374649879756855,-0.11533997560848086,0.1285481569438817,-0.3981491890832555,0.0799784342594214
115,-1.1397717874878552,-0.7018041216271664,0.12058517316221658,0.5119778644159073,0.4072296757053008
116,-1.1538078699203986,-0.11873751633484286,0.13082473045053472,-0.32090487403393664,0.07992327658053251
117,-1.1561826202470955,-0.7052148674324743,0.12440663296985599,0.5896465150537046,0.39570210796828587
118,-1.170286917595745,-0.13871740728387738,0.13619956327093008,-0.21705111023120738,0.08909692604473234
119,-1.1730612657414226,-0.725215087776191,0.13185854106630593,0.6944672120520152,0.37742694426072276
120,-1.1875655674969463,-0.1970755271563841,0.14574788530734623,-0.05221098621014242,0.07656446243371386
121,-1.191507078040074,-0.5731198918443046,0.14470366558314338,0.5485734154299992,0.3020761130235048
122,-1.2029694758769602,-0.038604660164951676,0.15567513389174337,-0.2024252834752972,0.022220005903088893
123,-1.2037415690802593,-0.49448457339094803,0.15162662822223744,0.5187090548848385,0.2671010350780814
124,-1.2136312605480783,0.055527000721837194,0.1620008093199342,-0.2524350147407274,0.02474636165964025
125,-1.2125207205336417,-0.49194176824623365,0.15695210902511966,0.6054359330086276,0.27887215569183466
126,-1.2223595558985663,0.0902250858755313,0.1690608276852922,-0.211125899694512,0.042155768153664765
127,-1.2205550541810557,-0.4203335107241148,0.16483830969140198,0.5932610679334507,0.20395788952294297
128,-1.228961724395538,0.08175441406940903,0.176703531050071,-0.10141874820130481,0.014505640633674387
129,-1.2273266361141497,-0.10358394263412535,0.1746751560860449,0.223940702279189,0.05115727886832284
130,-1.2293983149668322,0.4262276761899882,0.17915397013162868,-0.5075898022267082,0.24210252573643445
131,-1.2208737614430325,-0.16024543171367261,0.1690021740870945,0.4104298965797072,0.08512104098164089
132,-1.2240786700773059,0.4215658285613824,0.17721077201868865,-0.4004030215462093,0.24218283874167065
133,-1.215647353506078,-0.16492742676835798,0.16920271158776445,0.517387154714815,0.08505994747842345
134,-1.2189459020414453,0.4168946015147244,0.17955045468206077,-0.29337411351239406,0.2337565707153024
135,-1.2106080100111507,-0.14910853418169684,0.17368297241181288,0.5944867125995561,0.06171821378365456
136,-1.2135901806947846,0.3388917910808657,0.185572706663804,-0.07569436461700552,0.050976821608362574
137,-1.2068123448731674,0.4841628653847768,0.18405881937146387,-0.23561390663131274,0.16678226987763073
138,-1.1971290875654719,0.13889067444453912,0.17934654123883761,0.32735463246113716,0.08856207345346082
139,-1.1943512740765811,0.697885873617045,0.18589363388806035,-0.44524346649037994,0.3116286201750665
140,-1.1803935566042403,0.248009011573389,0.17698876455825274,0.2722842604541845,0.1561117397183537
141,-1.1754333763727725,0.8295828490252339,0.18243444976733644,-0.5346853080305403,0.4011223875556606
142,-1.1588417193922678,0.342510236612276,0.17174074360672564,0.2371378138777933,0.20743712937355957
143,-1.1519915146600221,0.9119906659148057,0.1764834998842815,-0.554272258097576,0.43542393122954054
144,-1.133751701341726,0.43181389133552656,0.16539805472233,0.20642236801986202,0.24394076322824454
145,-1.1251154235150154,0.9680101796334182,0.16952650208272724,-0.5384901543503732,0.4975746999922118
146,-1.105755219922347,0.4524359219325985,0.15875669899571979,0.27338731753222045,0.24689041475068244
147,-1.096706501483695,0.9675972038990267,0.16422444534636418,-0.4431584122881128,0.16253542376809227
148,-1.0773545574057144,0.7983262100418165,0.15536127710060194,-0.14460286572715247,0.3373512350403065
149,-1.061388033204878,1.2110620326607702,0.15246921978605887,-0.7107572354535407,0.6191149042044024
150,-1.0371667925516626,0.6975814349960641,0.13825407507698806,0.09518085638335061,0.4211195912674662
151,-1.0232151638517413,1.2801812652030642,0.14015769220465507,-0.729862907612447,0.7483790039638178
152,-0.99761153854768,0.6937415995388485,0.12556043405240613,0.18224221450570233,0.421174929156145
153,-0.983736706556903,1.276660746808997,0.12920527834252019,-0.6484352339604363,0.5905435250208876
154,-0.958203491620723,0.8135740291678312,0.11623657366331146,0.078285574788861,0.49026487680862024
155,-0.9419320110373665,1.396714644026343,0.11780228515908868,-0.7564262619375516,0.7026449633946943
156,-0.9139977181568396,0.8925064053648183,0.10267375992033764,0.029198168533019042,0.48738739812266674
157,-0.8961475900495433,1.4226191239622763,0.10325772329099803,-0.731650216339069,0.7500315612564854
158,-0.8676952075702977,0.8949989179277535,0.08862471896421664,0.08586851574891008,0.5393318493376343
159,-0.8497952292117427,1.4787664266242309,0.09034208927919485,-0.7603245933743518,0.8176209625481167
160,-0.8202199006792581,0.9255731113235532,0.0751355974117078,0.09260589564187138,0.5513342695997303
161,-0.801708438452787,1.502778366253514,0.07698771532454524,-0.7486901512278648,0.7027522547241689
162,-0.7716528711277167,1.0351487150773195,0.06201391229998794,-0.026711381084096875,0.5675474094847077
163,-0.7509498968261703,1.569642022769943,0.061479684678306,-0.8086897942562512,0.6928529162944994
164,-0.7195570563707714,1.127969897272882,0.04530588879318098,-0.1293696269613509,0.3490098922714103
165,-0.6969976584253137,1.4307242769972313,0.042718496253953964,-0.5697198207149903,0.4439171934017538
166,-0.6683831728853691,1.121884214341169,0.03132409983965416,-0.09432693874246789,0.5646522681994134
167,-0.6459454885985457,1.614314438797114,0.0294375610648048,-0.8234021465350533,0.7365059719419279
168,-0.6136591998226034,1.1582720022178565,0.012969518134103734,-0.13098147175254393,0.3304034899349118
169,-0.5904937597782463,1.437818653770955,0.010349888699052855,-0.5464532515703513,0.42165851498737117
170,-0.5617373867028271,1.1465361773753266,-0.0005791763323541709,-0.10651012549261113,0.4447456462229229
171,-0.5388066631553206,1.5265919054924382,-0.0027093788422063937,-0.6767638998845644,0.6602530353540486
172,-0.5082748250454718,1.096000191726049,-0.016244656839897682,-0.03167525628291823,0.4744744908702329
173,-0.48635482121095086,1.5191361510701111,-0.016878161965556047,-0.6710711705474173,0.7826542472720823
174,-0.45597209818954865,1.0064539938715424,-0.030299585376504394,0.09288058709876978,0.5432235383074979
175,-0.4358430183121178,1.5312297459812996,-0.028441973634528998,-0.7028284502014394,0.8048124781785134
176,-0.4052184233924918,1.0079561927288967,-0.04249854263855778,0.07340361319436817,0.5074216326815965
177,-0.3850592995379139,1.498018934716246,-0.04103047037467042,-0.6735175741002717,0.6410645176771422
178,-0.35509892084358896,1.0724368415807843,-0.05450082185667585,-0.04774128335703598,0.37311789630348596
179,-0.33365018401197327,1.4132601896156043,-0.05545564752381657,-0.5742325329129506,0.5286920990669636
180,-0.3053849802196612,1.0422954143923628,-0.06694029818207559,-0.03493638481034411,0.4207765053626149
181,-0.28453907193181394,1.4375781059265096,-0.06763902587828247,-0.6461982236853113,0.457190996430175
182,-0.25578750981328374,1.1218978152938428,-0.08056299035198869,-0.19363127575521333,0.27725125308164383
183,-0.23334955350740688,1.3659290250253302,-0.08443561586709296,-0.5821507445013137,0.543842964228643
184,-0.20603097300690026,0.9712321348846777,-0.09607863075711923,-0.01700919671665857,0.49691037293421836
185,-0.1866063303092067,1.4718103885766052,-0.0964188146914524,-0.7926172540762338,0.4255921210126989
186,-0.1571701225376746,1.1841716504283544,-0.11227115977297708,-0.391466367700488,0.2016149012359348
187,-0.1334866895291075,1.0172825755742936,-0.12010048712698684,-0.17564722508737568,0.2958941424979372
188,-0.11314103801762163,1.3046838644456795,-0.12361343162873435,-0.6388684788154235,0.24799007838821893
189,-0.08704736072870803,1.1169726103661304,-0.13639080120504282,-0.3956999363291588,0.10198506628582907
190,-0.06470790852138542,1.2092801050270134,-0.144304799931626,-0.5728500025013074,0.18658843425919977
191,-0.040522306420845144,1.0576959642384862,-0.15576179998165215,-0.39011563299193375,0.023447065582528796
192,-0.01936838713607542,1.037914285359069,-0.16356411264149084,-0.406411361087534,0.07410490619718459
193,0.0013898985711059617,0.9694243378108054,-0.17169233986324153,-0.3529213419206135,0.13545560210486057
194,0.02077838532732207,0.8335301090815631,-0.1787507667016538,-0.2023069844192535,0.15236104454049484
