,X,v,theta,theta_dot,energy
0,0.0,0.0,0.6981317007977318,0.0,0.0
1,0.0,0.5613336084202939,0.6981317007977318,-0.4560301799515931,0.2800199094074163
2,0.011226672168405878,1.0408106964498538,0.6890110971986999,-0.8180017610356207,0.5504930269695583
3,0.03204288609740295,1.5498722469887165,0.6726510619779875,-1.2204820623944477,0.8617187143868479
4,0.06304033103717728,2.086749667888853,0.6482414207300986,-1.6671981496531891,1.2153533524542852
5,0.10477532439495434,2.651778136234974,0.6148974577370349,-2.1653011974414205,1.5421074667675263
6,0.15781088711965383,3.219207910080792,0.5715914337882064,-2.6909427270888093,1.7684475420024945
7,0.22219504532126966,3.758891450367292,0.5177725792464303,-3.2127412702519877,2.177859160030054
8,0.2973728743286155,4.332786629116267,0.45351775384139054,-3.815233931358547,2.5044908768871617
9,0.3840286069109408,4.910610167778206,0.3772130752142196,-4.465541874720539,1.2416937906788268
10,0.48224081026650495,4.658647351344066,0.28790223771980883,-4.00587982262618,0.12169508865848329
11,0.5754137572933863,4.632851593715518,0.20778464126728524,-3.885299973041634,1.375180560531148
12,0.6680707891676967,4.333031771414351,0.13007864180645257,-3.3845937247102187,0.11574497305167564
13,0.7547314245959837,4.305655320340829,0.062386767312248195,-3.3057406115636367,2.359642788535718
14,0.8408445310028003,3.7515969929166033,-0.003728044919024537,-2.457940123448154,0.5133915767924631
15,0.9158764708611324,3.6140243151725295,-0.05288684738798762,-2.252678583519425,1.0978861225764147
16,0.9881569571645831,3.3095904827267884,-0.09794041905837612,-1.8122078021308865,0.8764336099642416
17,1.054348766819119,3.0459512909727167,-0.13418457510099385,-1.447392654526169,0.323860967492913
18,1.1152677926385732,2.941719861921544,-0.16313242819151724,-1.3317829391576816,1.1082721361059387
19,1.174102189877004,2.5693018689585823,-0.18976808697467087,-0.828321116046093,0.10867180119821372
20,1.2254882272561758,2.530068297272469,-0.20633450929559274,-0.82598479788722,0.43076546095036017
21,1.2760895932016252,2.3647659112259958,-0.22285420525333716,-0.6435235204332335,0.180430970415879
22,1.3233849114261451,2.2926792027189182,-0.23572467566200184,-0.6030456066800317,0.4621358558830263
23,1.3692384954805235,2.097667958552634,-0.24778558779560247,-0.38728121033060336,0.08321002264354319
24,1.411191854651576,2.1398737213074868,-0.2555312120022145,-0.5207620637053669,0.5787613547622895
25,1.4539893290777257,1.8778199385678862,-0.2659464532763218,-0.21475631371394738,0.13793901761025917
26,1.4915457278490833,1.809762436168477,-0.2702415795506008,-0.1935288199908886,0.40877043954459186
27,1.5277409765724528,1.5931746706312546,-0.27411215595041855,0.0410742225841475,0.09695284456179916
28,1.559604469985078,1.6558791636454435,-0.2732906714987356,-0.12905454400953933,0.39404583788622993
29,1.5927220532579869,1.4278592845986287,-0.27587176237892636,0.1209308248788348,0.038928242008402975
30,1.6212792389499595,1.4579509439147782,-0.27345314588134967,-0.002581367102033147,0.3513893851556738
31,1.650438257828255,1.2277527884177148,-0.27350477322339034,0.25048901595978357,0.09415650312831685
32,1.6749933135966093,1.3052095192166115,-0.26849499290419465,0.05921087137299452,0.35716282624722
33,1.7010975039809415,1.0437829765232745,-0.26731077547673476,0.3593082891031365,0.041271059128128174
34,1.721973163511407,1.0095764907989981,-0.26012460969467205,0.3311389662399321,0.012742198889432253
35,1.742164693327387,1.0251764671989074,-0.2535018303698734,0.23290913914093803,0.18820824746593617
36,1.7626682226713652,0.8521068900222291,-0.24884364758705463,0.4104827312027948,0.16917164834204995
37,1.7797103604718099,1.0442985734521308,-0.24063399296299873,0.05866776213711111,0.41965209769398804
38,1.8005963319408524,0.6581424723561957,-0.2394606377202565,0.5511468756507392,0.22693866228095833
39,1.8137591813879763,0.9844287127735353,-0.22843770020724172,0.005952337632621152,0.5028179260058955
40,1.833447755643447,0.4912624995324974,-0.2283186534545893,0.6599058983300617,0.24185484439604224
41,1.843273005634097,0.9459286904960758,-0.21512053548798807,-0.07093836483949678,0.48845736817615415
42,1.8621915794440185,0.44512119662380434,-0.216539302784778,0.600199196060612,0.16286249407206033
43,1.8710940033764945,0.7836857519581306,-0.20453531886356577,0.041045991176021146,0.30482001234347617
44,1.886767718415657,0.4090808346027694,-0.20371439904004535,0.5315256906198496,0.12343067798323067
45,1.8949493351077125,0.6892836694274098,-0.19308388522764836,0.060433896291822664,0.2964610701479044
46,1.9087350084962607,0.27512458821628766,-0.1918752073018119,0.6137135364400659,0.09499949349119097
47,1.9142375002605865,0.5832662854043233,-0.17960093657301057,0.10391754241107853,0.2231434855163278
48,1.925902825968673,0.21634840708822184,-0.177522585724789,0.59292231974464,0.08770205188112858
49,1.9302297941104374,0.5702241063168902,-0.16566413932989618,0.018532986986885547,0.24968318613052007
50,1.941634276236775,0.1468319501011333,-0.16529347959015847,0.5964434812233604,0.07084910695102209
51,1.9445709152387978,0.5464748799923194,-0.15336460996569126,-0.043225573114697546,0.25121058827062487
52,1.9555004128386442,0.09932335166080847,-0.1542291214279852,0.5747165311179718,0.04191435043384225
53,1.9574868798718603,0.4276041279875051,-0.14273479080562576,0.04297647048303799,0.16741739765464392
54,1.9660389624316104,0.04992709107426163,-0.141875261395965,0.5619092604678488,0.02886482668497947
55,1.9670375042530956,0.42566307740523623,-0.13063707618660803,-0.03760348648550782,0.22368433181072517
56,1.9755507658012004,-0.08657721492466297,-0.13138914591631817,0.6859116837874742,0.03133526953608853
57,1.973819221502707,0.46396592234078504,-0.11767091224056869,-0.1713025702288069,0.27020585502819083
58,1.9830985399495227,-0.11159146604895065,-0.12109696364514483,0.651547872156828,0.0400107402476942
59,1.9808667106285436,0.3646195583532664,-0.10806600620200826,-0.09305307918959649,0.1751478993034658
60,1.9881591017956088,-0.10755070641636871,-0.10992706778580019,0.579361142384731,0.045313287548383256
61,1.9860080876672814,0.4368689431562494,-0.09833984493810558,-0.2645927473913019,0.21572753203111966
62,1.9947454665304065,-0.056714923706857046,-0.10363169988593161,0.44334061456622,0.01143950403769256
63,1.9936111680562694,0.2489155681694678,-0.09476488759460722,-0.043058794141840884,0.11052186791862026
64,1.9985894794196588,-0.1860500091242009,-0.09562606347744404,0.5786429497155352,0.0901691320755224
65,1.9948684792371747,0.36522712225301435,-0.08405320448313333,-0.2725660615529114,0.20267716350104162
66,2.002173021682235,-0.19362695326433854,-0.08950452571419155,0.5380730366475108,0.0781732509220126
67,1.9983004826169484,0.2579603871373541,-0.07874306498124134,-0.16287572516738913,0.1379258033501928
68,2.0034596903596955,-0.27767389705403683,-0.08200057948458912,0.6149595550014986,0.14590192064246402
69,1.9979062124186149,0.2930117043339296,-0.06970138838455915,-0.2622736130669424,0.15072069084758558
70,2.0037664465052933,-0.22887578885548993,-0.074946860645898,0.49818116901836373,0.1187834892059495
71,1.9991889307281836,0.333719308579806,-0.06498323726553074,-0.3653562552213888,0.19029080741405796
72,2.00586331689978,-0.2505453923998148,-0.0722903623699585,0.49009938495767047,0.13653553285604603
73,2.0008524090517836,0.3336662588351102,-0.06248837467080509,-0.4051641767406544,0.18917430654395337
74,2.007525734228486,-0.2506490209096492,-0.07059165820561818,0.45123844696508975,0.10586172066442129
75,2.0025127538102927,0.19886762565531252,-0.061566889266316385,-0.2420939179256445,0.09109359894822151
76,2.006490106323399,-0.27313388739438565,-0.06640876762482928,0.44647770799706865,0.14216861014281132
77,2.001027428575511,0.2761149822380871,-0.05747921346488791,-0.3950894022885151,0.12898147672419655
78,2.006549728220273,-0.21032914245698975,-0.0653810015106582,0.31648217408597556,0.06798431217650051
79,2.002343145371133,0.12894155550855552,-0.05905135802893869,-0.21054487892853146,0.06436297469998317
80,2.004921976481304,-0.3960354767635625,-0.06326225560750932,0.5581970863139655,0.19264991842946358
81,1.9970012669460329,0.11171136313514446,-0.05209831388123001,-0.22048633626292524,0.045025527420490256
82,1.9992354942087358,-0.3193732121037451,-0.05650804060648852,0.4099532003817118,0.17686157680731487
83,1.9928480299666609,0.2549895726917541,-0.04830897659885429,-0.46682034300443964,0.11180118022673864
84,1.997947821420496,-0.2107771593267666,-0.057645383458943086,0.21681735826846749,0.023148258283359008
85,1.9937322782339606,-0.09759062302084437,-0.05330903629357374,0.030381205920543608,0.009155471977062388
86,1.9917804657735436,-0.18964724650340858,-0.052701412175162866,0.15260454464007392,0.022731383844161478
87,1.9879875208434754,-0.06754737695117688,-0.04964932128236139,-0.04577801866392692,0.023017326698697025
88,1.986636573304452,-0.38930271076652423,-0.05056488165563992,0.42166934160599023,0.17856387730596823
89,1.9788505190891215,0.08195943549169238,-0.04213149482352012,-0.29918011652455834,0.041024521106482
90,1.9804897077989554,-0.5027306875401694,-0.048115097154011285,0.5646937915816939,0.26209697253291975
91,1.970435094048152,0.03382363636558172,-0.036821221322377404,-0.25334663747825026,0.008606133197033792
92,1.9711115667754637,-0.3418426688935888,-0.04188815407194241,0.2989478735842144,0.1489890185637531
93,1.964274713397592,0.10149578123319108,-0.03590919660025812,-0.37778798609742525,0.04771204171220945
94,1.966304629022256,-0.44987412074212657,-0.04346495632220662,0.4381786577274004,0.21901382177107295
95,1.9573071466074135,0.04761539061731357,-0.03470138316765861,-0.3201255004319169,0.01938562213948858
96,1.9582594544197598,-0.52366118273398,-0.04110389317629695,0.5260733097155157,0.29147834710734466
97,1.9477862307650802,0.045852741737965275,-0.030582426981986637,-0.33955716244614487,0.017754234797667374
98,1.9487032855998394,-0.5229393965667944,-0.037373570230909536,0.5042422570716264,0.2832878710262545
99,1.9382444976685036,0.030252455596013417,-0.02728872508947701,-0.33595134347093436,0.0068527442562784004
100,1.9388495467804239,-0.4153649919299009,-0.034007751958895695,0.32420407382028094,0.1645427916908012
101,1.9305422469418259,-0.014227720683486378,-0.027523670482490076,-0.2871502739339181,0.013091647687266915
102,1.930257692528156,-0.48210743416995905,-0.03326667596116844,0.4063125430343969,0.24468648818281652
103,1.920615543844757,0.03319395162907823,-0.0251404251004805,-0.37599047188284285,0.008056104357071504
104,1.9212794228773384,-0.45427858098104323,-0.03266023453813736,0.3475967558371219,0.2630912929829959
105,1.9121938512577177,0.13150578148542158,-0.02570829942139492,-0.5402115933381874,0.058735724860951764
106,1.914823966887426,-0.40383726254202557,-0.036512531288158664,0.254980216969497,0.1885289489203791
107,1.9067472216365855,0.06554497952339705,-0.031412926948768724,-0.4593561744785196,0.02680725620170326
108,1.9080581212270535,-0.519334912656477,-0.040600050438339114,0.40829696034221696,0.23727611266461301
109,1.897671422973924,-0.05656675580560527,-0.032434111231494776,-0.29721638154537655,0.03418976742821251
110,1.8965400878578118,-0.5321174041621379,-0.03837843886240231,0.40620046763612827,0.23836303626552377
111,1.885897739774569,-0.07889664020356263,-0.030254429509679742,-0.2844105679188744,0.0420109165917805
112,1.8843198069704978,-0.5248248684634166,-0.03594264086805723,0.37528222364754715,0.269036410105799
113,1.8738233096012296,-0.0074530184449691506,-0.028436996395106287,-0.4108391824616353,0.012668340260035152
114,1.8736742492323302,-0.4802418450194433,-0.036653780044338995,0.28969798149878023,0.19458721881826233
115,1.8640694123319412,-0.07331817606065705,-0.03085982041436339,-0.33105134002845404,0.042988214836181184
116,1.8626030488107281,-0.5475074758210303,-0.03748084721493247,0.3708226012709329,0.3086401302375302
117,1.8516528992943075,0.020394357809977337,-0.030064395189513815,-0.4914486611590895,0.0010603211064848536
118,1.852060786450507,-0.5150072245331457,-0.039893368412695605,0.30245318977374347,0.22948444794473913
119,1.841760641959844,-0.06785010430921218,-0.03384430461722074,-0.3794743694244276,0.044499653056226385
120,1.8404036398736598,-0.5775632366638972,-0.04143379200570929,0.3747091616027016,0.32219381924029666
121,1.8288523751403818,-0.016276440809883774,-0.03393960877365526,-0.47867648958300013,0.018009777534369237
122,1.8285268463241842,-0.47792101192619996,-0.04351313856531526,0.20341525067330501,0.12651383140123326
123,1.8189684260856602,-0.213984982057719,-0.03944483355184916,-0.20490287837793547,0.08729232184558504
124,1.8146887264445057,-0.5947788594091917,-0.04354289111940787,0.35424986475411163,0.32999608106051403
125,1.8027931492563218,-0.037898964236867116,-0.03645789382432564,-0.4930757919471163,0.02334117359227325
126,1.8020351699715844,-0.4150403540970673,-0.04631940966326797,0.06154412200055953,0.006603434256881149
127,1.7937343628896432,-0.43000234778319124,-0.04508852722325678,0.07035000379887073,0.0064662626753960945
128,1.7851343159339794,-0.444135479037615,-0.04368152714727936,0.07827661917012912,0.030876389698657875
129,1.7762516063532272,-0.5118724521743134,-0.04211599476387678,0.16694687349212728,0.14670243299678876
130,1.766014157309741,-0.22749375121635346,-0.03877705729403423,-0.27162136213616517,0.10601764544765327
131,1.7614642822854139,-0.6581659625933809,-0.044209484536757535,0.36250372930590324,0.30259465279802683
132,1.7483009630335462,-0.19755546312797007,-0.03695940995063947,-0.34073029480853256,0.10241309628384129
133,1.7443498537709867,-0.6660015169204596,-0.04377401584681012,0.3505953253780504,0.2921650686310918
134,1.7310298234325776,-0.22697243517646376,-0.036762109339249116,-0.32018291005671373,0.14490873509043467
135,1.7264903747290483,-0.8117574158082226,-0.04316576754038339,0.5455962698387715,0.4634235107141855
136,1.7102552264128839,-0.23672599125124305,-0.032253842143607964,-0.3288342017969186,0.1285468436583205
137,1.705520706587859,-0.7345595204630366,-0.03883052617954633,0.4080467141403322,0.3986061001706975
138,1.6908295161785982,-0.19095294450059896,-0.03066959189673969,-0.41816179157499234,0.09915207662728617
139,1.6870104572885862,-0.6512363286407097,-0.03903282772823954,0.26292314842954356,0.33789371914707
140,1.673985730715772,-0.135085909930303,-0.033774364759648665,-0.5221855018771288,0.09029100289672617
141,1.671284012517166,-0.6892678037906302,-0.04421807479719124,0.29868548876987167,0.25065981339791016
142,1.6574986564413534,-0.32677633143226065,-0.038244365021793805,-0.2575161165281161,0.13620584323683516
143,1.650963129812708,-0.7187880553674159,-0.04339468735235613,0.3188303926936694,0.2837697400708389
144,1.6365873687053598,-0.32514595205550895,-0.037018079498482744,-0.28383093360587375,0.1352191936536639
145,1.6300844496642497,-0.7148358710888032,-0.04269469817060022,0.28942265553240265,0.33314322215748654
146,1.6157877322424736,-0.2510972553689675,-0.036906245059952165,-0.41809980248952794,0.13019011457399496
147,1.6107657871350942,-0.7208036752712061,-0.04526824110974272,0.27513207869360656,0.3541356124957877
148,1.59634971362967,-0.23245299250309853,-0.03976559953587059,-0.4699478403561599,0.11444020081191164
149,1.5917006537796081,-0.6717623798348651,-0.049164556342993784,0.17680729307024323,0.20958838166415233
150,1.578265406182911,-0.36304490191875205,-0.04562841048158892,-0.3001579305476874,0.1958332344061652
151,1.5710045081445358,-0.8695412440636621,-0.05163156909254267,0.4453857457745372,0.3646798602485817
152,1.5536136832632625,-0.4499873958970567,-0.04272385417705193,-0.198279309698484,0.1568734166080174
153,1.5446139353453214,-0.7827753710512197,-0.04668944037102161,0.28789014478196784,0.2969793510364963
154,1.5289584279242971,-0.4057445021438652,-0.040931637475382254,-0.2907615611354296,0.15717999218389025
155,1.5208435378814198,-0.7711436686578044,-0.046746868698090846,0.2448475692668427,0.2920564727557569
156,1.5054206645082637,-0.3956373385056366,-0.04184991731275399,-0.3315351754372875,0.17025803804478512
157,1.497507917738151,-0.7994433838096433,-0.04848062082149974,0.2613432613101021,0.27344672847203455
158,1.4815190500619582,-0.4600788777538519,-0.0432537555952977,-0.26135311042184173,0.12952628346139103
159,1.472317472506881,-0.7271831887311535,-0.04848081780373453,0.12621598361759834,0.11045775306311933
160,1.457773808732258,-0.5771451138399479,-0.04595649813138256,-0.11282447215862187,0.02877108211131172
161,1.446230906455459,-0.6246871237428132,-0.048212987574555,-0.05509320559240866,0.05205231353394368
162,1.4337371639806027,-0.7049521372705345,-0.04931485168640317,0.05099528273600203,0.12200417647863385
163,1.419638121235192,-0.53487388973088,-0.04829494603168313,-0.21830462497370987,0.1541397217902915
164,1.4089406434405745,-0.810173952449412,-0.05266103853115733,0.1799707846674309,0.14171593739732613
165,1.3927371643915862,-0.6370644135732014,-0.04906162283780871,-0.09480874868532227,0.022450898477878994
166,1.3799958761201223,-0.6705073770256946,-0.05095779781151515,-0.05912299661424844,0.03286857906734512
167,1.3665857285796084,-0.7174032773758967,-0.05214025774380012,-0.003845566787694203,0.03577604162210872
168,1.3522376630320905,-0.6680260259936822,-0.052217169079554,-0.09313307970847806,0.15399946831295502
169,1.3388771425122168,-0.8907267590344325,-0.054079830673723565,0.2251178338040028,0.21741882463332005
170,1.3210626073315281,-0.6491052190553313,-0.049577473997643506,-0.15267633680930842,0.1296293926475807
171,1.3080805029504214,-0.8411375405157346,-0.052631000733829675,0.12044840990901068,0.016609305972134874
172,1.2912577521401067,-0.8209982783559095,-0.05022203253564946,0.07481497512312835,0.08919580157521917
173,1.2748377865729885,-0.7138656657018158,-0.0487257330331869,-0.1004403962105358,0.018912867659265017
174,1.2605604732589522,-0.7388474730670982,-0.050734540957397614,-0.07733185780691054,0.03715630506651319
175,1.2457835237976103,-0.7869433257818911,-0.052281178113535824,-0.020190464570926492,0.047558620022133784
176,1.2300446572819725,-0.7273148222750532,-0.05268498740495436,-0.12487467492473782,0.06299819481137107
177,1.2154983608364716,-0.8103960190601671,-0.05518248090344911,-0.015908018217688336,0.026168402036432916
178,1.1992904404552682,-0.7781381626174586,-0.05550064126780288,-0.08043656697562196,0.09545271068908331
179,1.183727677202919,-0.896434915077879,-0.05710937260731532,0.08042652507378711,0.012103643852124917
180,1.1657989789013614,-0.882394855380365,-0.05550084210583958,0.04261973948855991,0.029129805821065263
181,1.1481510817937541,-0.8493302760590993,-0.05464844731606838,-0.02320963315188542,0.0672379871123226
182,1.131164476272572,-0.925670805731779,-0.05511263997910609,0.07507156570681242,0.0639995809143046
183,1.1126510601579365,-0.9925689530440558,-0.053611208664969844,0.15907151293275112,0.1770145229641984
184,1.0927996810970553,-0.816574817292255,-0.050429778406314824,-0.12029455100512687,0.014825221588789905
185,1.07646818475121,-0.8334452796486356,-0.05283566942641736,-0.10984110024308223,0.017180853485918926
186,1.0597992791582374,-0.852677524862222,-0.05503249143127901,-0.09655945021564408,0.09501855870912579
187,1.042745728660993,-0.9600283026226196,-0.05696368043559189,0.04805155115320481,0.11809460719556615
188,1.0235451626085406,-1.079469457488737,-0.0560026494125278,0.21018441819989805,0.05274724983245497
189,1.0019557734587659,-1.0305842839392245,-0.05179896104852984,0.12051544276201348,0.06430199603606007
190,0.9813440877799814,-1.0910284177359684,-0.04938865219328957,0.19583795067088644,0.11415182130558761
191,0.959523519425262,-0.9874270234720547,-0.04547189317987184,0.026110990771221754,0.16950616017085204
192,0.939774978955821,-0.8191223620392576,-0.044949673364447405,-0.23944917455817621,0.14190537381479032
193,0.9233925317150358,-0.6517043404296541,-0.04973865685561093,-0.503533306232115,0.1199970649688033
194,0.9103584449064427,-0.8245244188259405,-0.05980932298025323,-0.2592409180385161,0.11236002035223872
