,X,v,theta,theta_dot,energy
0,0.0,2.0,-0.17453292519943295,0.0,1.0075790340173933
1,0.04,1.512027211015562,-0.17453292519943295,0.6697865145422197,0.8276334804000836
2,0.07024054422031124,0.991929851074572,-0.16113719490858855,1.3870278188947438,0.6325752845395859
3,0.09007914124180269,0.40963077361370315,-0.13339663853069367,2.2019917307779675,0.30545586587919316
4,0.09827175671407676,-0.17371870067807071,-0.08935680391513431,3.0301396981593154,0.003667940811348166
5,0.09479738270051534,-0.2719131043456406,-0.028754009951948004,3.150607706022972,0.010633264628792686
6,0.08935912061360253,-0.19119631826591948,0.03425814416851143,3.0211300614487477,0.020880583647175713
7,0.08553519424828414,0.184589920434804,0.09468074539748639,2.4678513682617083,0.08568427514763576
8,0.08922699265698023,0.46607376133978584,0.14403777276272056,2.075311271587831,0.21638906459795718
9,0.09854846788377594,0.8416501920773446,0.1855439981944772,1.5599813866635661,0.43049407114311206
10,0.11538147172532284,1.2993099189129416,0.2167436259277485,0.939512156449103,0.7269945401991728
11,0.14136767010358167,1.8236435909902298,0.23553386905673057,0.2346383424276447,0.23643351046810657
12,0.17784054192338627,1.695141871799535,0.24022663590528345,0.49067747369048154,0.17519463784604805
13,0.21174337935937698,1.7910458374486136,0.25004018537909306,0.4209017729709574,0.2884499452361746
14,0.24756429610834926,1.9424870422156089,0.2584582208385122,0.27355234608929263,0.17982537165995022
15,0.28641403695266143,2.028313459693164,0.26392926776029807,0.2242323263699556,0.3812882894926777
16,0.32698030614652474,2.206341074912321,0.2684139142876972,0.04313538603229311,0.06421421334957804
17,0.37110712764477116,2.2309180956671426,0.269276622008343,0.0855594371551672,0.22939497596261935
18,0.415725489558114,2.326894318964111,0.27098781075144635,0.024997113458439107,0.4652151658746811
19,0.4622633759373962,2.5171596458711316,0.2714877530206151,-0.17128693371563256,0.4992425222446571
20,0.5126065688548188,2.7065425884565846,0.26806201434630245,-0.3661160456222742,0.4403513315854627
21,0.5667374206239505,2.8617956904981,0.26073969343385694,-0.5128088667288873,0.3456638843926097
22,0.6239733344339125,2.976507476379224,0.2504835160992792,-0.6032687588257462,0.21479671704295114
23,0.683503483961497,3.0438875545149338,0.23841814092276428,-0.6283102589792318,0.14554189047004434
24,0.7443812350517957,3.087587149704303,0.22585193574317963,-0.6225726930062013,0.3948126445545017
25,0.8061329780458817,3.20997086284467,0.2134004818830556,-0.7356487165537715,0.1785362619025197
26,0.8703323953027751,3.261766001189883,0.19868750755198017,-0.7493144409726179,0.20630242305055232
27,0.9355677153265727,3.3212745959544407,0.18370121873252782,-0.7787906662875504,0.13425996289172845
28,1.0019932072456614,3.3585724655590847,0.1681254054067768,-0.780091218796879,0.11302206789469924
29,1.0691646565568431,3.3232014804232186,0.15252358103083924,-0.6785864902851066,0.07057193931617697
30,1.1356286861653075,3.341994547713427,0.13895185122513712,-0.6617805608174867,0.20349610500423815
31,1.202468577119576,3.399945432307941,0.1257162400087874,-0.7071485544442089,0.25302743350873697
32,1.2704674857657348,3.3250148600907408,0.11157326891990321,-0.5587764174420854,0.18180157091199492
33,1.3369677829675495,3.377166218343838,0.1003977405710615,-0.6037825255721111,0.20363656253679013
34,1.4045111073344263,3.435036320327663,0.08832209005961927,-0.6606831869713194,0.019441686010459442
35,1.4732118337409796,3.4282473466140195,0.07510842632019288,-0.624606472599847,0.05734909003566537
36,1.54177678067326,3.443652791990006,0.06261629686819593,-0.6255883699921794,0.09379032239461389
37,1.6106498365130602,3.4159966374694384,0.050104529468352345,-0.5657882735015559,0.26920809812377333
38,1.678969769262449,3.4927493942377987,0.03878876399832123,-0.6660483561749708,0.10999030065913896
39,1.7488247571472049,3.461222463842772,0.025467796874821813,-0.6073924947612158,0.06643000732084896
40,1.8180492064240603,3.4419923961893,0.013319946979597496,-0.5710700244725817,0.036669728305037036
41,1.8868890543478463,3.452278262440548,0.0018985464901458624,-0.5825815065589194,0.08875572673485492
42,1.9559346195966572,3.426975526520207,-0.009753083641032525,-0.5440692987479854,0.06803836807465335
43,2.0244741301270612,3.4466227411630173,-0.020634469615992232,-0.5764060801835753,0.1676651409564067
44,2.0934065849503214,3.3990902501438494,-0.032162591219663736,-0.5111886255253545,0.013704291942131474
45,2.1613883899531983,3.403503130590264,-0.04238636373017082,-0.5272586945424268,0.0902747651076333
46,2.2294584525650034,3.3780416946427003,-0.05293153762101936,-0.5015587034180786,0.07178134613392154
47,2.2970192864578576,3.357918787557723,-0.06296271168938093,-0.486971223738781,0.2907833613112548
48,2.364177662209012,3.273785689591825,-0.07270213616415655,-0.3795204500866549,0.11187346190174613
49,2.4296533760008483,3.2413118868124866,-0.08029254516588964,-0.35229402544844385,0.28566072271342224
50,2.494479613737098,3.156081818665209,-0.08733842567485851,-0.24844145593154093,0.2835270489258083
51,2.557601250110402,3.069413524918993,-0.09230725479348934,-0.14457939449383034,0.2026817601324069
52,2.618989520608782,3.006207455486239,-0.09519884268336594,-0.07727373028480095,0.29173326183597653
53,2.6791136697185065,2.912838741174432,-0.09674431728906195,0.03419897930041488,0.16968143187756768
54,2.737370444541995,2.9709797208420192,-0.09606033770305365,-0.081003163937862,0.35686906833085463
55,2.7967900389588354,2.855092973588699,-0.0976804009818109,0.06382723160337503,0.17854268612473823
56,2.8538918984306094,2.795578063551037,-0.0964038563497434,0.12400164980788961,0.19074055578025476
57,2.9098034597016302,2.7305628021973005,-0.09392382335358561,0.19277286561115675,0.26675515484595624
58,2.9644147157455762,2.636952704548411,-0.09006836604136248,0.3049960959728001,0.02594522997567723
59,3.0171537698365443,2.6286850688982777,-0.08396844412190647,0.29090296955331313,0.38367381142848206
60,3.06972747121451,2.488262731866161,-0.07815038473084021,0.4761366314872814,0.30818101706062306
61,3.119492725851833,2.60910172370394,-0.06862765210109459,0.27247854615689104,0.6859513457078202
62,3.171674760325912,2.3548798428265494,-0.06317808117795677,0.6327530321540358,0.5825758230673612
63,3.2187723571824427,2.594138429374868,-0.050523020534876055,0.25601915738140457,0.33424891374740234
64,3.27065512576994,2.469737376809486,-0.045402637387247965,0.42753517994973256,0.2881371855480707
65,3.3200498733061297,2.3574627349046837,-0.03685193378825331,0.5824298006481017,0.007660272522095022
66,3.3671991280042235,2.3611131419349656,-0.025203337775291282,0.5661258914180275,0.019052710639031824
67,3.414421390842923,2.369253886939698,-0.013880819946930733,0.5465096551350062,0.30272795015948295
68,3.4618064685817167,2.4928108533541025,-0.0029506268442306086,0.3571112301666497,0.15822613537152472
69,3.511662685648799,2.4313286058506685,0.004191597759102385,0.4484667169311355,0.09450150704438695
70,3.5602892577658123,2.393664387797746,0.013160932097725096,0.5061948738379798,0.10003964550428694
71,3.6081625455217674,2.433864464163471,0.02328482957448469,0.44976918384642905,0.19667880802089469
72,3.656839834805037,2.355356507070712,0.03228021325141327,0.5743443179552308,0.19827146565056922
73,3.703946964946451,2.4361242825283074,0.04376709961051788,0.4627445046409693,0.09727084008881577
74,3.752669450597017,2.474122798596855,0.05302198970333727,0.41866473271842225,0.03669155353412276
75,3.802151906568954,2.4877282348723933,0.061395284357705714,0.4138664205701875,0.05966103174493044
76,3.851906471266402,2.510076021691958,0.06967261276910947,0.39844677453909455,0.14599020936985066
77,3.902107991700241,2.565408899540919,0.07764154825989136,0.3361160068492409,0.0930445112573133
78,3.9534161696910592,2.5291489072949696,0.08436386839687618,0.4131458285808032,0.19267360393929125
79,4.003999147836959,2.601698538697209,0.09262678496849225,0.32948198413703056,0.17536069136583943
80,4.0560331186109035,2.5350454588711986,0.09921642465123286,0.45622636239917735,0.37920407551124297
81,4.1067340277883275,2.6783076479349646,0.1083409518992164,0.2715117005674234,0.027951412109147828
82,4.160300180747027,2.6666484970140525,0.11377118591056487,0.32068785213720746,0.04615398817660993
83,4.213633150687308,2.681822519702973,0.12018494295330902,0.3314505832961667,0.1442872188564795
84,4.2672696010813675,2.7322739048728835,0.12681395461923234,0.29156877428631456,0.07951705450722919
85,4.321915079178825,2.7022631097737597,0.13264533010495863,0.37340693421006554,0.10023470365121359
86,4.3759603413743005,2.6644849868461677,0.14011346878915995,0.46845979388775544,0.20738638114461552
87,4.4292500411112234,2.737766476069484,0.14948266466691507,0.4006734896636164,0.43602960967543947
88,4.484005370632613,2.889796482226426,0.1574961344601874,0.21895599653171266,0.03608489270034892
89,4.541801300277142,2.899705580956627,0.16187525439082165,0.25038898699828493,0.20286607039323373
90,4.599795411896275,2.829576254832107,0.16688303413078734,0.4015915055496244,0.3978524441528905
91,4.6563869369929165,2.963292291765096,0.17491486424177982,0.2526401549775955,0.42691576206102494
92,4.715652782828219,2.8211403437292746,0.17996766734133174,0.5137776531869116,0.24364814652248964
93,4.772075589702804,2.90204974502355,0.19024322040506997,0.44699898684369777,0.4396648964804569
