,X,v,theta,theta_dot,energy
0,0.0,2.0,-0.3490658503988659,0.0,1.2
1,0.04,1.4241721160278376,-0.3490658503988659,0.7110978979793615,0.7915078117838399
2,0.06848344232055675,0.9022191598822243,-0.33484389243927865,1.3462569877727502,0.5761666788181635
3,0.08652782551820123,0.3252822863199224,-0.3079187526838236,2.0669842999495707,0.24130649538429794
4,0.09303347124459968,-0.23483458828436554,-0.2665790666848322,2.7785388251155174,0.05361304971735034
5,0.08833677947891237,-0.6972682399781024,-0.21100829018252187,3.3702387215814733,0.08964319569544844
6,0.07439141467935033,-0.8561710192614,-0.14360351575089242,3.5417291455407502,0.20418233748799144
7,0.057267994294122326,-0.5701744817359322,-0.07276893284007742,3.0750756267032866,0.05226769605507776
8,0.045864504659403685,-0.4514128923159277,-0.011267420306011688,2.8760295048696345,0.10727677045625553
9,0.03683624681308513,-0.1250185280740781,0.046253169791381,2.3831564846885565,0.006481737719063224
10,0.034335876251603566,0.2471672111859322,0.09391629948515212,1.8390685313979733,0.13240410535695604
11,0.03927922047532221,0.6370528065949754,0.1306976701131116,1.2843882355905487,0.3741287886041584
12,0.05202027660722172,1.1600715378413282,0.15638543482492256,0.5448670265562039,0.3028529375016094
13,0.07522170736404829,1.4069129426094944,0.16728277535604663,0.2249134795460952,0.08664032862660595
14,0.10335996621623818,1.4641031943912706,0.17178104494696853,0.1892776739095441,0.07926821624235765
15,0.13264203010406359,1.5141035179895461,0.1755665984251594,0.16563666493734885,0.002340735080240465
16,0.1629241004638545,1.5101496577197013,0.17887933172390638,0.22282810555133614,0.21726937827790702
17,0.19312709361824854,1.6467744807380758,0.1833358938349331,0.0734714176928758,0.10675836839669202
18,0.22606258323301004,1.7071794919488028,0.18480532218879062,0.0379816999864371,0.054384926945927406
19,0.2602061730719861,1.7355679113027536,0.18556495618851937,0.05014818736559713,0.39054545220064835
20,0.2949175312980412,1.9516826513069057,0.1865679199358313,-0.21421505652837808,0.2889486722180596
21,0.3339511843241793,1.8042960588175245,0.18228361880526373,0.05756166770559368,0.24491928732661242
22,0.3700371055005298,1.933671813099609,0.1834348521593756,-0.07999168062418191,0.24215616849847205
23,0.408710541762522,2.053212991561814,0.18183501854689196,-0.20266721256102868,0.06862558285421486
24,0.44977480159375827,2.0833503333899417,0.17778167429567138,-0.19396255213470331,0.04327790326358765
25,0.4914418082615571,2.1011711355603118,0.1739024232529773,-0.1682795145331078,0.14628980486546084
26,0.5334652309727633,2.1667575593690604,0.17053683296231514,-0.2143052917323723,0.2812129490591314
27,0.5768003821601445,2.2912874655378435,0.1662507271276677,-0.3484953106139943,0.31565031755417006
28,0.6226261314709014,2.153917476388255,0.1592808209153878,-0.09662851523563781,0.3755801266851419
29,0.6657044809986665,2.3218249911509763,0.15734825061067506,-0.2986708256151598,0.24410553593508322
30,0.7121409808216861,2.422604994745234,0.15137483409837185,-0.4019035872345781,0.24440125955929723
31,0.7605930807165908,2.3214963263077237,0.14333676235368029,-0.2076404661143355,0.4776409504692891
32,0.8070230072427453,2.520717285084009,0.13918395303139358,-0.4614104912869492,0.4302993477733852
33,0.8574373529444255,2.3510884384085715,0.1299557432056546,-0.16863971306134817,0.4798115675109532
34,0.9044591217125969,2.548755244617146,0.12658294894442762,-0.42454018669729376,0.16330878930730425
35,0.9554342266049398,2.6098945542514307,0.11809214521048174,-0.4783993128033431,0.11719524188143589
36,1.0076321176899685,2.5641147683132446,0.10852415895441488,-0.37556945331873715,0.21051940382734402
37,1.0589144130562334,2.482022357604798,0.10101276988804013,-0.22131174732908948,0.12843356570758388
38,1.1085548602083293,2.531239598709784,0.09658653494145834,-0.26511400890010856,0.20154382357918776
39,1.159179652182525,2.607867976409583,0.09128425476345617,-0.35116853457373737,0.14331322868833546
40,1.2113370117107167,2.660487789950848,0.08426088407198142,-0.40296931545298753,0.0468010357732959
41,1.2645467675097337,2.64202729145228,0.07620149776292166,-0.3506334138940543,0.4642269883547247
42,1.3173873133387792,2.813335829248372,0.06918882948504057,-0.5844689673640611,0.2910881935992498
43,1.3736540299237467,2.71050168075743,0.05749945013775935,-0.41026151463207255,0.017037636651814625
44,1.4278640635388953,2.715861909957107,0.0492942198451179,-0.4013930458659328,0.23102479650110977
45,1.4821813017380374,2.7987000911082265,0.04126635892779924,-0.5110127484606481,0.6688162625774521
46,1.538155303560202,2.563053640834094,0.03104610395858628,-0.14571512784395907,0.8600005020410421
47,1.5894163763768838,2.890787592227553,0.028131801401707096,-0.6279530682351719,0.8164097576460365
48,1.6472321282214348,2.6121347817896856,0.015572740037003657,-0.20186957693506624,0.8788686635870645
49,1.6994748238572286,2.941313138280825,0.01153534849830233,-0.6909990405197297,1.0230088586511166
50,1.758301086622845,2.598170128861091,-0.0022846323120922635,-0.17292745381783547,1.0293217019436633
51,1.8102644892000668,2.985884581898619,-0.005743181388448973,-0.755169296920512,1.4228901625734003
52,1.8699821808380392,2.5156425787297576,-0.020846567326859213,-0.05150641107459586,0.7503025775837411
53,1.9202950324126344,2.8071834729820306,-0.02187669554835113,-0.49485117953957847,1.1058850007800969
54,1.976438701872275,2.420062332859182,-0.0317737191391427,0.07926034653703806,0.8572517520837385
55,2.0248399485294586,2.7655659781405912,-0.030188512208401942,-0.44807343770281716,0.4168598708627157
56,2.0801512680922705,2.6178564214696234,-0.03914998096245829,-0.23548413049762085,0.20797308086025643
57,2.132508396521663,2.6962307209040235,-0.0438596635724107,-0.36446265103897013,0.19271646508015272
58,2.1864330109397434,2.626699476906255,-0.051148916593190104,-0.27315669262606734,0.28118904545019224
59,2.2389670004778686,2.522513307851113,-0.05661205044571145,-0.13211304961417533,0.17310924794722374
60,2.289417266634891,2.4562266350006814,-0.05925431143799496,-0.049477384439412034,0.20622685832419865
61,2.3385417993349047,2.5390409994684777,-0.0602438591267832,-0.19089149454116283,0.4883710927049506
62,2.389322619324274,2.3516548487272715,-0.06406168901760645,0.07197683927704313,0.36845291391276114
63,2.4363557162988196,2.5051695022474245,-0.06262215223206559,-0.17664405296326344,0.6718395054563618
64,2.486459106343768,2.243658514201509,-0.06615503329133086,0.19645465531550713,0.6062341382237961
65,2.5313322766277984,2.507083648303986,-0.06222594018502072,-0.21725409943223875,0.8045567194937054
66,2.581473949593878,2.193737806645474,-0.06657102217366549,0.23357236193164224,0.6720136627151717
67,2.6253487057267875,2.492014317558849,-0.06189957493503265,-0.2324087938875978,0.7605362992429925
68,2.6751889920779646,2.1939693027623006,-0.0665477508127846,0.19561566347249984,0.25092634523311724
69,2.7190683781332106,2.3060141049592695,-0.06263543754333462,0.008369873355736218,0.2311299825103525
70,2.765188660232396,2.209169302548652,-0.062468040076219894,0.13494943394767628,0.055829569675674116
71,2.809372046283369,2.2346417052349143,-0.05976905139726637,0.07846169399175865,0.14052978336568955
72,2.854064880388067,2.1742567255723997,-0.058199817517431196,0.15131578417908453,0.06748059524319726
73,2.8975500148995152,2.144911620563556,-0.0551735018338495,0.17815782566929064,0.17450492049587865
74,2.9404482473107865,2.0666418164538363,-0.05161034532046369,0.2791710994078439,0.022131155227496344
75,2.9817810836398633,2.0569947467443996,-0.04602692333230681,0.27845572974290145,0.05882302968452696
76,3.022920978574751,2.0299259701269157,-0.04045780873744878,0.30548875568984984,0.33143555951565445
77,3.0635194979772895,1.8723098403402072,-0.03434803362365178,0.5298281320267215,0.404014579871646
78,3.100965694784094,2.080623315124441,-0.02375147098311735,0.20744588958392102,0.3445777979351276
79,3.1425781610865826,1.9201247754913449,-0.019602553191438932,0.4411435194714075,0.08504297218554631
80,3.1809806565964096,1.9631644542954507,-0.010779682802010781,0.3708336231373441,0.16672620222502765
81,3.2202439456823186,2.045467424754037,-0.0033630103392638996,0.2442171748142929,0.21841356779255655
82,3.2611532941773995,1.9419029271517059,0.0015213331570219585,0.39857431956928335,0.1524107922581395
83,3.2999913527204336,2.0177445828562357,0.009492819548407624,0.2852592394371463,0.2706891051601487
84,3.3403462443775584,1.8875634589070347,0.015198004337150552,0.4833129741387115,0.16775272588502763
85,3.378097513555699,1.9730552314033072,0.024864263819924782,0.3595581665001445,0.025537200261097175
86,3.417558618183765,1.9852249685903114,0.03205542714992767,0.3486185435806567,0.15008087814682458
87,3.4572631175555713,2.0579352566643245,0.039027798021540806,0.24903182346148928,0.03443667150738436
88,3.498421822688858,2.073612959994018,0.04400843449077059,0.237004436027204,0.11123505494202018
89,3.5398940818887383,2.020927954765928,0.04874852321131467,0.3288897319887365,0.10477796080818323
90,3.580312640984057,2.0704374646319796,0.0553263178510894,0.2690400812039082,0.05015637464341187
91,3.6217213902766967,2.0931400623439975,0.06070711947516756,0.2512959312309257,0.08186842179949301
92,3.6635841915235767,2.130217389641769,0.06573303809978608,0.21361932364218914,0.23849719959248397
93,3.706188539316412,2.020581039322877,0.07000542457262986,0.39703028597603784,0.3430036383396481
94,3.7466001601028696,2.183685166115194,0.07794603029215061,0.17353813959953715,0.11835190860798918
95,3.7902738634251736,2.235237867381219,0.08141679308414135,0.11933681349175776,0.1536145991330126
96,3.834978620772798,2.167223341287029,0.0838035293539765,0.24493075502000194,0.11711006729007907
97,3.8783230875985386,2.1136089799922,0.08870214445437655,0.34967946925599547,0.21141302664723502
98,3.9205952671983826,2.209158966245692,0.09569573383949645,0.23296221189014707,0.11014304633385705
99,3.9647784465232965,2.2561790494277156,0.10035497807729939,0.1908464109086594,0.09435130802410696
100,4.009902027511851,2.2141402556096024,0.10417190629547257,0.28304219949972786,0.1102740289806132
101,4.054184832624043,2.2609387571233373,0.10983275028546713,0.24379616679532268,0.06133603016512694
102,4.09940360776651,2.2856994344280133,0.11470867362137359,0.23910489185945338,0.12951949638456464
103,4.14511759645507,2.339047211747069,0.11949077145856266,0.19325955533279054,0.0473289524592115
104,4.191898540690011,2.3570029265322856,0.12335596256521847,0.20156478169020298,0.09751026022398161
105,4.239038599220657,2.3150966656271965,0.12738725819902252,0.3001212696745241,0.33200639363134316
106,4.285340532533201,2.4522374696458615,0.13338968359251302,0.1334275427794591,0.08319209509106269
107,4.334385281926118,2.4173778839525033,0.1360582344481022,0.22435279815260117,0.014076188482616197
108,4.382732839605168,2.4211094955604633,0.1405452904111542,0.258684929486751,0.3227702050377326
109,4.431155029516377,2.2898766931409633,0.14571898900088923,0.4947775686807249,0.4644582800670465
110,4.4769525633791964,2.483533276573292,0.15561454037450373,0.25006124930747464,0.12727078889522817
111,4.526623228910663,2.5310343660858337,0.16061576536065322,0.22523683566321,0.13571026022564792
112,4.577243916232379,2.580787882337388,0.16512050207391743,0.19858539458636357,0.4626917104947574
113,4.628859673879127,2.4045082525228163,0.1690922099656447,0.5077334842947854,0.5404893238289539
114,4.676949838929583,2.618972652966401,0.1792468796515404,0.24010148611955717,0.22031613184025936
115,4.729329291988911,2.6980191965726807,0.18404890937393154,0.17584820687884578,0.24998866174715056
116,4.783289675920365,2.785364357799735,0.18756587351150844,0.10084866283847532,0.20496873433162377
