,X,v,theta,theta_dot,energy
0,0.0,-2.0,-0.3490658503988659,0.0,1.0857316394765755
1,-0.04,-2.5205602914210017,-0.3490658503988659,0.6331960746459693,0.27648329308559716
2,-0.09041120582842004,-2.4088616565573533,-0.3364019289059465,0.3751985781083777,0.18540724554884272
3,-0.1385884389595671,-2.4794727705733184,-0.32889795734377897,0.3781311620575707,0.4339628932723651
4,-0.18817789437103347,-2.3045864042652493,-0.32133533410262755,0.034900696397308306,0.653153448900524
5,-0.23426962245633845,-2.574998187890306,-0.3206373201746814,0.32690149169889066,1.0774736027100267
6,-0.28576958621414456,-2.163252778567516,-0.31409929034070355,-0.35189996833734866,1.1872123234271081
7,-0.3290346417854949,-2.6871056083060094,-0.32113728970745054,0.3046008378235871,1.4246764395324876
8,-0.3827767539516151,-2.166829241928387,-0.3150452729509788,-0.5287165168087427,1.3137835121079706
9,-0.4261133387901828,-2.7439996619160385,-0.3256196032871536,0.2033299592224307,1.1290893200587624
10,-0.4809933320285036,-2.3399653716578066,-0.321553004102705,-0.46492450167927546,1.371073825793663
11,-0.5277926394616597,-2.8984477683874754,-0.3308514941362905,0.23694633712683089,1.1958706853294
12,-0.5857615948294091,-2.493240591757652,-0.3261125673937539,-0.4334059146713616,1.4762826359974512
13,-0.6356264066645622,-3.0580918397339065,-0.3347806856871811,0.27502843787182807,1.1999886708851883
14,-0.6967882434592403,-2.6723997896141563,-0.32928011692974457,-0.3679878260328122,1.612924695436955
15,-0.7502362392515234,-3.249008426225429,-0.3366398734504008,0.35538960170619904,0.8618175247679847
16,-0.815216407776032,-2.986664647639265,-0.3295320814162768,-0.11315131997063255,1.499776005727024
17,-0.8749497007288173,-3.467704742415392,-0.3317951078156895,0.47444596557644036,0.9799537533526319
18,-0.9443037955771252,-3.1881944439957937,-0.3223061885041607,-0.017720160183858247,1.199110537688268
19,-1.008067684457041,-3.548091831233616,-0.3226605917078379,0.40120194412811155,0.8460236565366309
20,-1.0790295210817133,-3.3117971923070386,-0.31463655282527564,-0.028173827538281127,1.6502173464957188
21,-1.1452654649278542,-3.7901772883725062,-0.31520002937604125,0.563185581165304,1.6390601731714947
22,-1.2210690106953044,-3.3644067041406998,-0.30393631775273516,-0.13514847801280405,1.9348996755425087
23,-1.2883571447781184,-3.9168026858127103,-0.3066392873129912,0.5674797228801115,1.392114557929631
24,-1.3666931984943727,-3.566161093795068,-0.295289692855389,-0.02269409198806782,2.1402887565668296
25,-1.438016420370274,-4.143953606704489,-0.29574357469515034,0.7209235444859259,1.4883146359158252
26,-1.5208954925043638,-3.789237702783125,-0.2813251038054318,0.1262626476529235,2.2702332618973835
27,-1.5966802465600263,-4.3675213659111005,-0.27879985085237335,0.8779653559908523,2.091937340964378
28,-1.6840306738782482,-3.895106736967183,-0.2612405437325563,0.11579644711556059,1.878646254422822
29,-1.7619328086175918,-4.360421388325346,-0.2589246147902451,0.7141523691661812,0.9536462203632933
30,-1.8491412363840987,-4.143121221162436,-0.24464156740692147,0.3237912816088534,2.297254770061465
31,-1.9320036608073474,-4.68029299272673,-0.2381657417747444,1.034347539682026,2.6111211894244164
32,-2.025609520661882,-4.129824500072633,-0.21747879098110387,0.16259181019401092,2.419164660149583
33,-2.1082060106633347,-4.697367633324953,-0.21422695477722364,0.9304174726335219,2.243089770343321
34,-2.202153363329834,-4.226109594311176,-0.19561860532455322,0.17718704194215518,2.530923893233665
35,-2.2866755552160574,-4.807140729212967,-0.19207486448571012,0.9749654981697143,2.139169905724716
36,-2.382818369800317,-4.367685444991501,-0.17257555452231582,0.27178134344119953,2.613305728066842
37,-2.470172078700147,-4.949382439779749,-0.16713992765349184,1.0808800931044031,2.9405109691615148
38,-2.5691597274957423,-4.363040979104226,-0.14552232579140378,0.16471358013373927,2.613378815085442
39,-2.656420547077827,-4.945456895753448,-0.142228054188729,0.9864707909609433,2.9406061548299154
40,-2.755329684992896,-4.359075355964032,-0.12249863836951014,0.07410563691114258,2.255147182885612
41,-2.8425111921121764,-4.861901957409424,-0.12101652563128729,0.7867689864338839,0.8919846758980913
42,-2.939749231260365,-4.680142845614728,-0.1052811459026096,0.48063220002531837,1.0198443667321895
43,-3.0333520881726597,-4.89208247260773,-0.09566850190210324,0.7658858860869053,0.8502942664429424
44,-3.1311937376248142,-4.7201066752859715,-0.08035078418036513,0.48101813682601796,0.9030875966875661
45,-3.2255958711305337,-4.906417015502477,-0.07073042144384478,0.7359842637413476,1.3514020450065436
46,-3.323724211440583,-4.634983818321108,-0.05601073616901783,0.30907507681825264,0.8870071634246279
47,-3.4164238878070052,-4.82141613725682,-0.04982923463265278,0.5718264652774951,0.5227102073120358
48,-3.5128522105521416,-4.714395280853671,-0.03839270532710287,0.39685070194974825,0.3125830149695967
49,-3.607140116169215,-4.778779260715888,-0.030455691288107906,0.48207082138500346,1.5099376902957846
50,-3.7027157013835326,-4.4686904653162465,-0.020814274860407836,0.008200739462227546,1.0445661591948932
51,-3.7920895106898573,-4.696454760080642,-0.020650260071163284,0.3436542228834149,0.7721474934272456
52,-3.8860186058914703,-4.535230190480308,-0.013777175613494987,0.09579818530916534,0.256485476422981
53,-3.9767232097010763,-4.590259659012452,-0.01186121190731168,0.1742841928563285,0.10198715029640178
54,-4.068528402881325,-4.56837641308755,-0.00837552805018511,0.13797451844684738,0.9185728792142327
55,-4.159895931143076,-4.371819926684694,-0.005616037681248162,-0.15931224642531405,0.8928093020187009
56,-4.2473323296767695,-4.570647796640944,-0.008802282609754443,0.13727374886719473,0.5156940907674701
57,-4.338745285609589,-4.460296410890847,-0.006056807632410548,-0.030834754934778885,0.2186597163715417
58,-4.427951213827406,-4.508022288681431,-0.006673502731106127,0.03897205808368415,0.5393983911826001
59,-4.5181116596010344,-4.391146454989082,-0.005894061569432444,-0.1382997838541525,0.37035240733090125
60,-4.6059345887008165,-4.308896249333414,-0.008660057246515494,-0.2634057933853239,0.8769899777706893
61,-4.692112513687484,-4.506787300118437,-0.013928173114221972,0.030873626989719016,0.8542252032420655
62,-4.782248259689853,-4.321613656515462,-0.013310700574427592,-0.2509546474172933,0.9770506736545705
