,X,v,theta,theta_dot,energy
0,0.0,0.0,-0.5235987755982988,0.0,0.0
1,0.0,-0.5687518211086796,-0.5235987755982988,0.5918302882931687,0.2826823876936356
2,-0.011375036422173593,-1.0594210504444268,-0.5117621698324354,1.0822283144833036,0.5438819767739809
3,-0.032563457431062134,-1.5670687482001846,-0.49011760354276934,1.6021662990453458,0.40701896139340366
4,-0.06390483239506584,-1.8224766565465855,-0.4580742775618624,1.8017827601221734,0.25659382578407386
5,-0.10035436552599755,-1.9594106089523309,-0.42203862235941897,1.8559948448341421,0.3477104819825224
6,-0.13954257770504416,-2.1335563510033237,-0.38491872546273614,1.973864444763447,0.3358966775621754
7,-0.18221370472511064,-2.2882711836704868,-0.3454414365674672,2.0785634840711604,0.048786861058348285
8,-0.2279791283985204,-2.306622608075119,-0.30387016688604396,2.004912536093197,0.010236577548223201
9,-0.27411158056002277,-2.3081915007229,-0.26377191616418,1.9191887613156964,0.1535828129903517
10,-0.3202754105744808,-2.3725843993464615,-0.22538814093786608,1.9357846002056567,0.22991355737599956
11,-0.36772709856141,-2.468030393156782,-0.18667244893375295,2.009627977566158,0.0333718252486876
12,-0.4170877064245456,-2.4798081101839937,-0.14647988938242978,1.972424121100634,0.08179492447427793
13,-0.46668386862822553,-2.511618533216382,-0.1070314069604171,1.9767175191330182,0.3499153193688406
14,-0.5169162392925531,-2.3696777671589158,-0.06749705657775673,1.7336175436851828,0.15129069590956423
15,-0.5643097946357315,-2.43331614991439,-0.032824705704053075,1.8090286847987695,0.29090835572383145
16,-0.6129761176340193,-2.3122451086946887,0.0033558679919223136,1.6178712206362222,0.2651692052126203
17,-0.659221019807913,-2.1967270592573036,0.03571329240464676,1.4455817455271913,0.024759451143071945
18,-0.7031555609930591,-2.2084996775677226,0.0646249273151906,1.473726888897751,0.00854584771208043
19,-0.7473255545444135,-2.2053951756910517,0.09409946509314562,1.4880663632601032,0.13297852942884705
20,-0.7914334580582345,-2.1458961109595758,0.12386079235834768,1.426837042736787,0.13578630900913158
21,-0.8343513802774261,-2.0838394107779594,0.1523975332130834,1.3707871460968373,0.4422239439591224
22,-0.8760281684929853,-1.8727382955777494,0.17981327613502016,1.1024371246698754,0.22833755410097373
23,-0.9134829344045402,-1.7531669425553895,0.20186201862841766,0.978552533522796,0.33449848744727934
24,-0.948546273255648,-1.5654709319791058,0.22143306929887357,0.7616704850592302,0.07909404754330869
25,-0.9798556918952301,-1.5182094777518285,0.2366664790000582,0.7570798384287245,0.29453217546706434
26,-1.0102198814502668,-1.3285856110374261,0.2518080757686327,0.5495049175974247,0.32640382499848797
27,-1.0367915936710153,-1.088937366926086,0.26279817412058115,0.2746207407641309,0.11195732658220822
28,-1.058570341009537,-0.9915691632696244,0.26829058893586377,0.2099592712963969,0.29942463826469634
29,-1.0784017242749295,-0.6993624508277646,0.2724897743617917,-0.13473587952001542,0.06572015072062966
30,-1.0923889732914849,-0.6126222114368176,0.26979505677139143,-0.18092138912887323,0.13884359788772468
31,-1.1046414175202213,-0.3991228612911449,0.26617662898881395,-0.41122460873731315,0.09353470901114905
32,-1.1126238747460442,-0.1850624344277825,0.2579521368140677,-0.643672487922797,0.01696566841002468
33,-1.1163251234345999,-0.11128527242303583,0.24507868705561175,-0.6756771022763,0.015310887292455439
34,-1.1185508288830606,-0.009150772037299373,0.23156514501008577,-0.7529669118699877,0.0014536831864071593
35,-1.1187338443238066,0.021010071272900877,0.21650580677268602,-0.7295272695979902,0.0007229719855921015
36,-1.1183136428983487,0.07964081369702317,0.2019152613807262,-0.75226360849326,0.000156818235350105
37,-1.1167208266244082,0.07363217332969732,0.186869989210861,-0.6844732143676189,0.005531846701938088
38,-1.1152481831578143,0.1962327729819883,0.17318052492350863,-0.8105519195438413,0.0007519976041743059
39,-1.1113235276981746,0.19849249729243754,0.15696948653263182,-0.7632298510297623,0.016378639600691892
40,-1.1073536777523258,0.2935201544730314,0.14170488951203658,-0.8580591216419208,0.02342473906135668
41,-1.1014832746628653,0.2020805445189598,0.12454370707919817,-0.6807525540606325,0.024968956166794398
42,-1.0974416637724862,0.05836775088067603,0.11092865599798551,-0.4303318007166021,0.005493227340054528
43,-1.0962743087548728,0.1943927469917356,0.10232201998365348,-0.6005690427277921,0.0032423860442415704
44,-1.092386453815038,0.1740700579457079,0.09031063912909763,-0.5402142426726532,0.0014100697889035117
45,-1.088905052656124,0.16361830464303162,0.07950635427564456,-0.49808525227898726,0.005106859396173631
46,-1.0856326865632633,0.12719370077709752,0.06954464923006481,-0.42027069308486975,0.005540356746796639
47,-1.0830888125477214,0.0762419036799225,0.06113923536836742,-0.3235980929218692,0.0005008029290112834
48,-1.081563974474123,0.06743881479631895,0.05466727350993004,-0.29245439252152233,0.001331116494807091
49,-1.0802151981781967,0.0426897373942376,0.048818185659499594,-0.23932206047362226,0.001876196047180459
50,-1.0793614034303118,-0.015515310184174083,0.04403174445002715,-0.1377716584185114,0.0015810446545137932
51,-1.0796717096339954,-0.08698223286357108,0.04127631128165692,-0.017734027152023962,0.007926092323206622
52,-1.081411354291267,0.0005005721710427818,0.040921630738616446,-0.1367146750687283,5.282463158446374e-05
53,-1.081401342847846,-0.00911112336028001,0.03818733723724188,-0.1102815998332046,0.0006040617614409928
54,-1.0815835653150516,-0.05138903501176728,0.03598170524057779,-0.035686617624537315,0.003845047487562708
55,-1.0826113460152869,0.01885385564426896,0.03526797288808704,-0.13040641542581854,0.0006587612914865321
56,-1.0822342689024014,0.0680513397206691,0.03265984457957067,-0.19379011665849283,0.0015579243301735003
57,-1.080873242107988,0.09323663532256514,0.028784042246400812,-0.22194762626058936,0.0052343323693247795
58,-1.0790085094015367,0.031415324135740066,0.024345089721189025,-0.12079273211537919,0.002458006758609484
59,-1.0783802029188219,0.12355805830808012,0.02192923507888144,-0.2518091274141303,0.005089777396376982
60,-1.0759090417526602,0.07895577152930841,0.016893052530598834,-0.1784751048495667,0.00567431941625521
61,-1.074329926322074,0.0005735040927318802,0.0133235504336075,-0.055952158338285624,4.720830894922696e-06
62,-1.0743184562402195,0.0027208856204434836,0.012204507266841788,-0.05525593680071016,9.49243259791029e-06
63,-1.0742640385278106,-0.04167473375838181,0.011099388530827585,0.014920568845446784,0.0017532190908867826
64,-1.0750975332029782,-0.0001123038229001519,0.011397799907736521,-0.04415608261445935,7.938798431281184e-05
65,-1.0750997792794361,0.03627018954104185,0.010514678255447335,-0.09537539724604194,0.002390757132593005
66,-1.0743743754886153,0.1091558742966739,0.008607170310526496,-0.20160662239286659,0.013431933690897253
67,-1.0721912580026818,-0.022020059064000425,0.004575037862669164,-0.002319533947676672,4.1879522630099486e-05
68,-1.0726316591839617,-0.020239022157178314,0.004528647183715631,-0.003646004909443834,0.002711002541665042
69,-1.0730364396271053,-0.14992460812399994,0.004455727085526754,0.19221179700850655,0.014455225407997848
70,-1.0760349317895852,-0.05010274177070036,0.008299963025696884,0.043790463264976015,0.003869296752565096
71,-1.0770369866249991,-0.1286819644413205,0.009175772290996404,0.1640953984508613,0.003435386703598777
72,-1.0796106259138256,-0.10116540637816117,0.012457680260013631,0.12551993810584947,0.006218688328670128
73,-1.0816339340413887,-0.037789351323139375,0.01496807902213062,0.03412569536870358,0.002663149786568631
74,-1.0823897210678515,0.033692214709154025,0.015650592929504693,-0.06868419176183806,0.004383692148537004
75,-1.0817158767736683,0.1733637989298849,0.014276909094267933,-0.27356482365393925,0.014189797447916555
76,-1.0782486007950707,0.08713818886751386,0.008805612621189148,-0.14004232118766038,0.008774605301912793
77,-1.0765058370177203,0.19299505505681008,0.00600476619743594,-0.2962326478448193,0.000517506356484068
78,-1.072645935916584,0.1900972064584068,8.011324053955413e-05,-0.29012056266042335,0.026638761719005727
79,-1.068843991787416,0.04319063032408593,-0.0057222980126689135,-0.06973714587339788,0.0012955465076657919
80,-1.0679801791809342,0.011690490700606161,-0.007117040930136871,-0.024170056467274444,0.00197823438357569
81,-1.067746369366922,-0.17042037026206522,-0.00760044205948236,0.24689692439005667,0.02509616688942615
82,-1.0711547767721634,-0.01651611089561844,-0.002662503571681226,0.0138126947644511,0.0003602214550549117
83,-1.0714850989900757,0.005641255402040253,-0.002386249676392204,-0.020206012003405605,0.0003513932163758691
84,-1.0713722738820348,-0.06691329888158584,-0.002790369916460316,0.08792395282869298,0.0018513950947084343
85,-1.0727105398596666,-0.03816492672467857,-0.0010318908598864565,0.04398119478203213,0.0009184786275049607
86,-1.0734738383941602,-0.013373210749417854,-0.00015226696424581391,0.0064902647588128,0.0012065770948263882
87,-1.0737413026091487,-0.10337947177429188,-2.246166906955791e-05,0.14145488824369679,0.006553950890674077
88,-1.0758088920446345,-0.1693318828727587,0.002806636095804378,0.240376901135735,0.00518417503303512
89,-1.0791955297020897,-0.13744304340197833,0.007614174118519078,0.19336898025451596,0.014084643728315995
90,-1.0819443905701291,-0.03074561957247901,0.011481553723609397,0.035566029437538366,0.001431785484151411
91,-1.0825593029615788,0.01704353696627503,0.012192874312360163,-0.03273747789937517,0.0013658160032228336
92,-1.0822184322222532,0.10252860620690944,0.01153812475437266,-0.15737093409637926,0.011516943708156088
93,-1.080167860098115,0.22017046513441113,0.008390706072445075,-0.3304298431086331,0.015938843586146677
94,-1.075764450795427,0.14425320569649547,0.0017821092102724137,-0.21409112394515495,0.018426620519854803
95,-1.072879386681497,0.010590004519813456,-0.002499713268630685,-0.013072700726606379,0.0013040710216532855
96,-1.0726675865911006,-0.11665407356425891,-0.0027611672831628128,0.17705790514439107,0.00015456642493336003
97,-1.0750006680623858,-0.11800303144694872,0.0007799908197250087,0.17826955210530585,0.012582222956647158
98,-1.0773607286913247,-0.006318562830910632,0.004345381861831126,0.010972217419416508,0.00030410678259144006
99,-1.077487099947943,-0.05735987779063154,0.0045648262102194566,0.08881100527228648,0.004217448261976471
100,-1.0786342975037555,0.019737863639459473,0.006341046315665186,-0.025492347728883674,0.0005902601771956475
101,-1.0782395402309664,0.05064200399402165,0.005831199361087513,-0.06998337117498368,0.003285028073414393
102,-1.077226700151086,0.11808539697982635,0.004431531937587839,-0.16943237780948905,0.0029807178953073585
103,-1.0748649922114895,0.14436649486489725,0.0010428843813980577,-0.20755077142195286,0.018196959096038034
104,-1.0719776623141914,0.012781015066724133,-0.0031081310470409992,-0.009866051107179502,0.00021132384452860059
105,-1.071722042012857,0.029543080040434943,-0.0033054520691845894,-0.03592281617722107,0.001195413786958779
106,-1.0711311804120482,-0.012195493842896348,-0.00402390839272901,0.02571290148223873,0.0001982321132420903
107,-1.071375090288906,0.0054011272256573074,-0.003509650363084236,-0.0018648423045374805,0.00016736998904272194
108,-1.071267067744393,-0.025262707716332645,-0.0035469472091749854,0.04309879174060072,8.878283059427536e-05
109,-1.0717723218987196,-0.028928740365223863,-0.002684971374362971,0.04755500582971669,0.0009756542759271457
110,-1.072350896706024,0.006670407227319482,-0.0017338712577686373,-0.006632903717231263,5.547658349957923e-05
111,-1.0722174885614777,-0.001802800313598224,-0.0018665293321132625,0.005567130594967709,0.00010880293069512248
112,-1.0722535445677497,0.06671838417236665,-0.0017551867202139082,-0.09776322639668525,0.004368433805270705
113,-1.0709191768843023,-0.0016934222183676018,-0.003710451248147613,0.004338300492480615,4.868432064049303e-05
114,-1.0709530453286695,0.030104181929936816,-0.003623685238298001,-0.04444864756531364,0.0008918261585124079
115,-1.0703509616900708,-0.0008251792596648683,-0.004512658189604273,0.0008797284886475701,1.0484941746672327e-05
116,-1.0703674652752642,-0.013788098709675648,-0.004495063619831322,0.01899719267567803,0.0017095605539327351
117,-1.0706432272494577,-0.1427691608245724,-0.004115119766317761,0.21114528699301005,0.0192724191403925
118,-1.0734986104659492,-0.0015216154550301564,0.00010778597354243937,-0.0019340789237365652,2.2442052028465903e-05
119,-1.07352904277505,-0.015126330995263528,6.910439506770807e-05,0.0185046833442308,1.1215680627695589e-05
120,-1.0738315693949552,-0.015893298026366978,0.00043919806195232415,0.01967545058027277,0.001152755719649094
121,-1.0741494353554826,-0.09088077908475464,0.0008327070735577796,0.13228578554538806,0.0039758785870700345
122,-1.0759670509371777,-0.04518744039634017,0.003478422784465541,0.06399061712695583,0.0031229555216435727
123,-1.0768707997451046,0.026826777051345917,0.004758235127004657,-0.04300740131088614,0.0020549568236580044
124,-1.0763342642040776,-0.05384773669752265,0.0038980871007869345,0.0794019152618237,0.002993703121541234
125,-1.077411218938028,0.004232614977960188,0.005486125406023409,-0.00657191564513597,0.00029358795808788745
126,-1.0773265666384688,-0.06865598320789265,0.0053546870931206894,0.10437224908894707,0.001546054943522998
127,-1.0786996863026266,-0.04513236655763185,0.0074421320748996305,0.07066160045835006,0.005624189375391047
128,-1.0796023336337792,0.08565110472197325,0.008855364084066631,-0.12332020723884819,0.0009781914810018146
129,-1.0778893115393398,0.09744651457417088,0.006388959939289667,-0.13840918528250165,0.0014321789987270176
130,-1.0759403812478563,0.11268318113981485,0.003620776233639634,-0.15938537723213614,0.009783316420184844
131,-1.07368671762506,0.2031551835377577,0.00043306868899691117,-0.2940279853759279,0.019894865488829426
132,-1.0696236139543047,0.10088023629500643,-0.0054474910185216465,-0.14048825670734943,0.012332060767115235
133,-1.0676060092284045,-0.026363915871357432,-0.008257256152668636,0.04877358511806737,0.0022790481793160573
134,-1.0681332875458316,-0.1183252959818604,-0.007281784450307288,0.1842833469861226,0.006701748074526777
135,-1.0704997934654688,-0.1776875072148204,-0.0035961175105848364,0.27118347740350096,0.01879891926101417
136,-1.0740535436097651,-0.0667249655531482,0.0018275520374851826,0.10368348487125534,0.007479711824627458
137,-1.075388042920828,0.05092391021995306,0.003901221734910289,-0.0722522340828416,0.0011379825252988138
138,-1.0743695647164289,0.027563368376545258,0.0024561770532534576,-0.03606473168905787,0.0006757951549623535
139,-1.0738182973488979,0.002095713503357466,0.0017348824194723003,0.0028587507173137433,0.00016099619025467196
140,-1.0737763830788307,0.07264300744614277,0.0017920574338185751,-0.10245197577060755,0.005035224556403868
141,-1.072323522929908,0.0003611869812427393,-0.0002569820815935761,0.006497445432164878,3.744382307878847e-05
142,-1.072316299190283,-0.055277391906800956,-0.00012703317295027853,0.08987975827730345,0.007338827824339025
143,-1.0734218470284191,0.08458688764879518,0.0016705619925957904,-0.11995400711605049,0.0028394581583189352
144,-1.0717301092754432,0.04955666946547657,-0.0007285181497252197,-0.06691760816483364,1.1804964815014683e-06
145,-1.0707389758861336,0.049542354437276497,-0.0020668703130218924,-0.0671103199453049,0.003434104746844445
146,-1.069748128797388,-0.022491000180959224,-0.0034090767119279906,0.040331821750428265,0.0008956540548276575
147,-1.0701979488010072,-0.06474141348819815,-0.002602440276919425,0.10270480683017914,0.002740828827874285
148,-1.0714927770707712,-0.10921624826816136,-0.0005483441403158419,0.16865171651160654,0.015687213332482415
149,-1.0736771020361344,0.04150117979352165,0.002824690189916289,-0.057585604761659026,0.004267904713025821
150,-1.072847078440264,0.1485444051948575,0.0016729780946831082,-0.2173193444892478,0.0015141988206328868
151,-1.0698761903363667,0.15917388666859533,-0.0026734087951018485,-0.23277168905667303,0.018189050611782345
152,-1.0666927126029948,0.03978959613186436,-0.007328842576235309,-0.054481874440608036,0.000793654388936303
153,-1.0658969206803575,0.06064586971961894,-0.00841848006504747,-0.08792010508171141,0.0002265288755994327
154,-1.064684003285965,0.06466774948329124,-0.010176882166681698,-0.09642771485771359,0.006166127854037977
155,-1.0633906482962991,-0.03497398366744242,-0.01210543646383597,0.05003519338353499,0.0021563159302152427
156,-1.064090127969648,-0.09913413822412372,-0.01110473259616527,0.14270946230881837,0.005515660012901407
157,-1.0660728107341304,-0.15705627481448253,-0.008250543349988903,0.22632258596044913,0.002800276507607022
158,-1.06921393623042,-0.17555239390985342,-0.00372409163077992,0.25164018809012334,0.010835341459506842
159,-1.072724984108617,-0.11108643271518576,0.001308712131022547,0.15384703644066106,0.009760781213547471
160,-1.0749467127629209,-0.2025875374873926,0.004385652859835769,0.29148333731833703,0.04724140063252618
161,-1.0789984635126688,0.04077145625396428,0.010215319606202509,-0.0722622649256256,0.0018438686690594723
162,-1.0781830343875896,0.08861190813982833,0.008770074307689998,-0.14101594684412197,0.005771353571294115
163,-1.076410796224793,0.1569826821499657,0.005949755370807558,-0.24098979507792764,0.02956244296225436
164,-1.0732711425817938,-0.04060687961313425,0.0011299594692490058,0.057138519398953785,0.000946703496241542
165,-1.0740832801740565,-0.016323663306628947,0.0022727298572280813,0.021045926206219173,0.00023725503215956225
166,-1.074409753440189,-0.0012936065474112614,0.0026936483813524647,-0.0008309187037591169,0.00012918634195122536
167,-1.0744356255711374,0.09333330966829308,0.0026770300072772825,-0.14197884641984593,0.0020303924542893516
168,-1.0725689593777714,0.11609510411501993,-0.00016254692111963625,-0.1753343698663065,0.01023363953107276
169,-1.070247057295471,0.20843503565187962,-0.0036692343184457662,-0.313892054136375,0.019081343899758504
170,-1.0660783565824334,0.11261172879123052,-0.009947075401173266,-0.1712368138853867,0.012679950255968504
171,-1.0638261220066088,-0.005253530278986285,-0.013371811678881,0.0026279362775284143,0.001128004447158844
172,-1.0639311926121884,-0.21940900019616597,-0.013319252953330432,0.3199012269957794,0.013111445847109276
173,-1.0683193726161118,-0.15678187211113032,-0.006921228413414845,0.2220531228130853,0.002952932235821138
174,-1.0714550100583344,-0.13704339835145615,-0.0024801659571531383,0.19041129641817317,0.009931269397804069
175,-1.0741958780253635,-0.061541265820558036,0.0013280599712103252,0.07642927790064138,0.003507286742150429
176,-1.0754267033417746,-0.12048757854649053,0.002856645529223153,0.16523911853168943,0.0034830415202913483
177,-1.0778364549127044,-0.09045072446693997,0.006161427899856941,0.12102387389066166,0.0066175766661745105
178,-1.0796454694020432,-0.014539344225719841,0.008581905377670174,0.008970413241934663,0.0003446722632012694
179,-1.0799362562865575,-0.03845755967269347,0.008761313642508867,0.04736946446494264,0.0007248793580704962
180,-1.0807054074800113,-0.058062739097658966,0.00970870293180772,0.0793518981877187,0.0029412628329551593
181,-1.0818666622619646,-0.0055079320499441045,0.011295740895562094,0.00337771672689241,0.000793095424751105
182,-1.0819768209029634,0.1388361100948356,0.011363295230099942,-0.20980365638587944,0.0040039577312975414
183,-1.0792000987010668,0.16888450166880148,0.007167222102382353,-0.2515325968895576,0.03190930102067
184,-1.0758224086676909,-0.02893548502910298,0.002136570164591201,0.04729690707561357,0.0010123694234248537
185,-1.076401118368273,-0.06583951406178122,0.0030825083061034723,0.10328097542686815,0.005574384621205347
186,-1.0777179086495086,0.02305937262711355,0.005148127814640835,-0.029160465071756653,0.0032706119102571744
187,-1.0772567211969664,0.1697991779486447,0.004564918513205702,-0.24775371336063146,0.01720867766246201
