,X,v,theta,theta_dot,energy
0,0.0,0.0,-0.6981317007977318,0.0,0.0
1,0.0,-0.5018741609038034,-0.6981317007977318,0.3877073109101952,0.27622844761976206
2,-0.01003748321807607,-1.0307790169498294,-0.6903775545795279,0.8064746925314044,0.6013970987061421
3,-0.03065306355707266,-1.5928288308330902,-0.6742480607288998,1.2692625235624135,0.5782251168082897
4,-0.06250964017373446,-1.9414562228522898,-0.6488628102576515,1.4942247044670884,0.6567571351488197
5,-0.10133876463078026,-2.266777171577218,-0.6189783161683097,1.7053758620917427,0.4849620531893155
6,-0.14667430806232462,-2.4713852781840053,-0.5848707989264749,1.784767340987709,0.4219798284243236
7,-0.1961020136260047,-2.634193476776319,-0.5491754521067207,1.826072558426051,0.29581474183690504
8,-0.2487858831615311,-2.7400156397668542,-0.5126540009381997,1.8080015801792664,0.5459402527452647
9,-0.3035861959568682,-2.931732858423593,-0.47649396933461435,1.9144037451388685,0.48517261588457294
10,-0.3622208531253401,-3.090947539425215,-0.438205894431837,1.9917750639826401,0.08786683126051659
11,-0.4240398039138444,-3.1152557161796492,-0.3983703931521842,1.9000433948777893,0.16520412044591812
12,-0.48634491823743736,-3.164061686330541,-0.3603695252546284,1.8534721202813635,0.14954960649168206
13,-0.5496261519640482,-3.207415565969664,-0.32330008284900114,1.810655494424189,0.09432132377831612
14,-0.6137744632834414,-3.233329903392705,-0.28708697296051733,1.7541101167292819,0.003931595672342036
15,-0.6784410613512956,-3.231511041009483,-0.2520047706259317,1.6682445546939344,0.2725892512787761
16,-0.7430712821714852,-3.312574002547304,-0.218639879532053,1.712690677199173,0.2458152479721406
17,-0.8093227622224313,-3.3840151453093097,-0.18438606598806953,1.753532018982483,0.08215404963299808
18,-0.8770030651286175,-3.357796660753915,-0.14931542560841987,1.660968082562154,0.052629783825722885
19,-0.9441589983436958,-3.3404752207070683,-0.11609606395717678,1.5915392263635857,0.04315066920386978
20,-1.0109685027578372,-3.3262453927862037,-0.08426527942990507,1.5362825479846054,0.08100515738820854
21,-1.0774934106135614,-3.300981921015784,-0.05353962847021296,1.473777116763169,0.12988900333807038
22,-1.1435130490338772,-3.339504309373254,-0.024064086134949578,1.5157447692238133,0.1889022708807974
23,-1.2103031352213423,-3.2828669154697847,0.0062508092495266905,1.4237391168517686,0.3622539553691134
24,-1.275960473530738,-3.1731247122202504,0.03472559158656206,1.2609667538550895,0.17298967554335276
25,-1.339422967775143,-3.1194084916262623,0.059944926663663856,1.1906482712369977,0.05321928592539843
26,-1.4018111376076683,-3.103249836937549,0.08375789208840381,1.1840670799308068,0.09053244567635582
27,-1.4638761343464193,-3.0753833966563584,0.10743923368701995,1.1670099924318607,0.15692987583713222
28,-1.5253838022795465,-3.0261607339265657,0.13077943353565716,1.1251281288396136,0.2402152744046855
29,-1.5859070169580778,-2.949188619802428,0.15328199611244941,1.0489955529480335,0.32957232111202944
30,-1.6448907893541262,-2.840582173903216,0.17426190717141007,0.9328845959962664,0.2591257842348295
31,-1.7017024328321906,-2.7527535450032072,0.1929195990913354,0.8541110222545935,0.4496657848662926
32,-1.7567575037322547,-2.59414222665701,0.21000181953642727,0.6769749164064022,0.16466521561943395
33,-1.808640348265395,-2.659418811695739,0.2235413178645553,0.8340263902764755,0.3457617069675576
34,-1.8618287244993097,-2.5341914047893206,0.2402218456700848,0.7160342043038161,0.26847365783724775
35,-1.9125125525950961,-2.433145156696497,0.25454252975616115,0.6387650373600305,0.25024988213645427
36,-1.961175455729026,-2.335480718531593,0.2673178305033618,0.5710187043838576,0.43139278574690304
37,-2.007885070099658,-2.157800644436948,0.27873820459103893,0.39162340074611723,0.20809624043434513
38,-2.051041082988397,-2.067216685989473,0.28657067260596125,0.34188379077895903,0.14575931812849985
39,-2.092385416708187,-2.002163961968608,0.29340834842154045,0.3313874297762048,0.48690137096305225
40,-2.132428695947559,-1.7685577897568194,0.3000360970170646,0.08098304783732774,0.1011959534708136
41,-2.1677998517426955,-1.7169996924158302,0.3016557579738111,0.09399395455427643,0.08040350842058575
42,-2.202139845591012,-1.6755388512049203,0.3035356370648966,0.12195875748359386,0.22179473509874043
43,-2.2356506226151107,-1.5508875312298978,0.3059748122145685,0.031404751507514636,0.3188640751042168
44,-2.2666683732397086,-1.3555409404322485,0.3066029072447188,-0.15944594655890348,0.24129384918257044
45,-2.2937791920483535,-1.1879941411449033,0.3034139883135407,-0.3103100887372662,0.2901279054355859
46,-2.3175390748712514,-0.9579696092300239,0.29720778653879537,-0.5517449872564676,0.032329998233423266
47,-2.336698467055852,-0.9937935756162762,0.28617288679366604,-0.41426657642060916,0.12299715329463844
48,-2.3565743385681777,-0.8797067971483925,0.2778875552652538,-0.4954459374967156,0.06993228504974211
49,-2.3741684745111455,-0.8081283653911727,0.2679786365153195,-0.5180431406641582,0.08401748900765763
50,-2.390331041818969,-0.7135521619807283,0.2576177737020363,-0.5769979055519038,0.04393378383069109
51,-2.4046020850585834,-0.6592565067257234,0.24607781559099823,-0.5808490922605931,0.010790062694899004
52,-2.4177872151930977,-0.6778538985331132,0.23446083374578636,-0.482174431998152,0.00364905517130125
53,-2.43134429316376,-0.6861009078298259,0.22481734510582332,-0.40184070871277533,0.07398464072675853
54,-2.445066311320357,-0.5870029769011386,0.21678053093156782,-0.4812059601090218,0.029774747074034547
55,-2.4568063708583794,-0.6375426211349837,0.2071564117293874,-0.34393534827443495,0.0011501733100472045
56,-2.469557223281079,-0.6421101984681483,0.2002777047638987,-0.27676115089803965,0.03444044620659584
57,-2.4823994272504417,-0.5936898118521785,0.1947424817459379,-0.28945114620096424,0.0005863564927615799
58,-2.494273223487485,-0.5954489436415723,0.1889534588219186,-0.2299692424942802,0.006347481749777539
59,-2.5061822023603164,-0.6082756017345293,0.18435407397203302,-0.15584936257223403,0.03348977394692436
60,-2.518347714395007,-0.5578737078591018,0.18123708672058833,-0.17627749499040782,0.04901788123936135
61,-2.529505188552189,-0.4760774153805887,0.17771153682078017,-0.24396989692727872,0.00241252187543553
62,-2.5390267368598005,-0.47373478093604077,0.1728321388822346,-0.19545588747227444,0.00979106592063566
63,-2.5485014324785213,-0.4959078377337622,0.1689230211327891,-0.11213175860084981,0.009184205772695402
64,-2.5584195892331967,-0.4804275509722218,0.1666803859607721,-0.08559416408039566,0.018981861300084897
65,-2.568028140252641,-0.4446036852737859,0.1649685026791642,-0.089807795215473,4.222509395540888e-05
66,-2.576920213958117,-0.44682937508703563,0.16317234677485473,-0.03823353517368736,0.029480114925170286
67,-2.5858568014598577,-0.38512614880718626,0.16240767607138099,-0.08179888704523769,0.0010674609012979927
68,-2.5935593244360016,-0.3847356715667429,0.16077169833047622,-0.03483866355623677,0.02131770523407797
69,-2.6012540378673363,-0.3332596564861543,0.16007492505935147,-0.06399341730680669,0.023905493979256575
70,-2.6079192309970596,-0.2662554354785627,0.15879505671321534,-0.11635351068813024,0.014420768411528456
71,-2.6132443397066307,-0.21675941790309083,0.15646798649945273,-0.1431736482335998,0.03202860630341449
72,-2.6175795280646925,-0.3587157548898745,0.15360451353478075,0.11297372899758734,0.06315213746908369
73,-2.62475384316249,-0.18695551705797744,0.15586398811473248,-0.09665082057278296,0.011337725029198758
74,-2.62849295350365,-0.1314289349892092,0.15393097170327683,-0.13329233596058182,0.009378876929372865
75,-2.631121532203434,-0.20006751821151886,0.1512651249840652,0.013525362161300264,0.04414853246947745
76,-2.6351228825676642,0.013383424829061824,0.1515356322272912,-0.25869248530025946,5.43045851446615e-05
77,-2.634855214071083,0.04139649442712662,0.146361782521286,-0.2558493978501639,0.0015491205508273312
78,-2.6340272841825403,-0.011149940164806922,0.14124479456428274,-0.13499557082119445,0.0006244020752844441
79,-2.6342502829858363,-0.048455411047968126,0.13854488314785884,-0.03820659002647098,0.00748849485853376
80,-2.6352193912067956,0.09498882032748213,0.13778075134732942,-0.2107091993065647,0.0054574154771636
81,-2.633319614800246,0.030858999293866235,0.13356656736119812,-0.07504658252802632,0.0013767976165395864
82,-2.6327024348143686,0.0777896585766023,0.1320656357106376,-0.10566365504649314,0.007310522545096385
83,-2.6311466416428364,0.17346188202468796,0.12995236260970772,-0.20920779120591199,0.00859729718088578
84,-2.6276774040023425,0.22269869116220814,0.12576820678558948,-0.24434171210079883,0.013168289346357788
85,-2.6232234301790984,0.28154566900845207,0.1208813725435735,-0.2950365318886172,0.012804963134082767
86,-2.6175925167989296,0.2333157344317538,0.11498064190580116,-0.18776691432447729,0.04400345661540285
87,-2.6129262021102946,0.42244360793344315,0.11122530361931161,-0.4358556363934979,0.020822281021880582
88,-2.6044773299516257,0.471278046188848,0.10250819089144166,-0.47602180193065124,0.021392615047076412
89,-2.5950517690278487,0.42347141097584085,0.09298775485282863,-0.3746036253110178,0.02830843264732581
90,-2.5865823408083317,0.35426292802653314,0.08549568234660827,-0.24394037846140296,0.009746752813623699
91,-2.579497082247801,0.3253572323148804,0.08061687477738022,-0.17563508313651494,0.007630104838127476
92,-2.5729899376015033,0.3007669907508184,0.07710417311464993,-0.11519381967543132,0.01695243985518631
93,-2.566974597786487,0.24373062580122257,0.0748002967211413,-0.00724728692714087,0.010980541608141693
94,-2.5620999852704625,0.2866567903619255,0.07465535098259848,-0.04948570031767686,0.02041037237061136
95,-2.556366849463224,0.3555748945624814,0.07366563697624495,-0.13064661749598233,0.005110820109088415
96,-2.5492553515719742,0.34026916274800856,0.0710527046263253,-0.08611217092365123,0.020859724877587277
97,-2.542449968317014,0.39973482712778885,0.06933046120785229,-0.15421368061263074,0.03640162277421957
98,-2.5344552717744584,0.4891393185253574,0.06624618759559966,-0.26763141031293736,0.02752064265679881
99,-2.524672485403951,0.5444671153795788,0.06089355938934092,-0.33097892853128663,0.015229210205552478
100,-2.5137831430963593,0.5155475395616724,0.054273980818715185,-0.2697883212881387,0.002876924258886529
101,-2.503472192305126,0.5091992216353425,0.04887821439295241,-0.24433114823054522,0.03852398560380293
102,-2.493288207872419,0.43306080572086086,0.043991591428341505,-0.1158954489749168,0.02579124672194953
103,-2.484626991758002,0.4912410325569024,0.04167368244884317,-0.1901520007822059,0.03643416657173997
104,-2.4748021711068637,0.5642897756346207,0.03787064243319905,-0.2873814649868077,0.011965036847574722
105,-2.463516375594171,0.542576041513331,0.03212301313346289,-0.24370290945320291,0.017831271509578
106,-2.4526648547639045,0.5093895599197603,0.027248954944398836,-0.18450632667794617,0.042021826035401486
107,-2.442477063565509,0.42717510876511733,0.02355882841083991,-0.0532202292296558,0.031646331410422654
108,-2.433933561390207,0.35415296321301065,0.022494423826246796,0.06320824889577624,0.0490099994605466
109,-2.4268505021259466,0.48775067115828985,0.02375858880416232,-0.130524812026377,0.03932106329929909
110,-2.4170954887027807,0.5670262899720612,0.02114809256363478,-0.24242031227525757,0.016091530075173843
111,-2.4057549629033397,0.5949586278567004,0.01629968631812963,-0.2780923743023902,0.009036974384880814
112,-2.3938557903462057,0.6098662722818193,0.010737838832081827,-0.29565897492513576,0.023527663584923104
113,-2.3816584649005694,0.6481983839199474,0.004824659333579111,-0.3499969636600285,0.0006975784022655191
114,-2.3686944972221706,0.6470534216455995,-0.00217527993962146,-0.3468610958961004,0.008492119334196328
115,-2.3557534287892588,0.6602083263855767,-0.009112501857543469,-0.3672329381187661,0.08222630371386903
116,-2.342549262261547,0.5356786995391146,-0.016457160619918792,-0.18312529175372627,0.026150104478987222
117,-2.3318356882707647,0.48753736174285334,-0.02011966645499332,-0.11576125054236693,0.060524731470677245
118,-2.3220849410359077,0.36539216890660986,-0.022434891465840656,0.06150467372549488,0.03201470602791941
119,-2.3147770976577755,0.280885371596414,-0.021204797991330758,0.18163766548631413,0.03503019437050182
120,-2.3091593902258474,0.16299451478446264,-0.017572044681604476,0.3522004521299132,0.0005446704431148998
121,-2.3058994999301583,0.1602758042847457,-0.010528035639006212,0.351111973015347,0.01171650876366921
122,-2.3026939838444633,0.22528576428528235,-0.003505796178699272,0.25050725192092044,0.0048546210551945225
123,-2.2981882685587576,0.2053241543780798,0.001504348859719137,0.2794187808114791,0.01482510176129966
124,-2.294081785471196,0.27164150606114085,0.007092724475948719,0.1803851442451887,0.024261533689700077
125,-2.288648955349973,0.3561228465214701,0.010700427360852492,0.055751564539177664,0.03667148620615005
126,-2.281526498419544,0.4557214936606134,0.011815458651636045,-0.09049198767100332,0.02315102225197843
127,-2.2724120685463314,0.505564797747695,0.010005618898215978,-0.16177806106037806,0.021146362211268872
128,-2.2623007725913773,0.546830581896601,0.006770057677008417,-0.22073203602309732,0.016087688135501498
129,-2.2513641609534454,0.5174951258772558,0.0023554169565464704,-0.17473947865163786,0.0335025484855633
130,-2.2410142584359,0.5816067282603785,-0.001139372616486287,-0.2702141235136936,0.04733000530669647
131,-2.2293821238706926,0.6627289678484444,-0.00654365508676016,-0.3922323793897312,0.06381406916366555
132,-2.2161275445137236,0.5662838981803733,-0.014388302674554786,-0.2494916930341243,0.01773166557247175
133,-2.2048018665501163,0.5353170197926725,-0.019378136535237272,-0.20727619854844942,0.021254463816160498
134,-2.1940955261542627,0.4961652737910685,-0.02352366050620626,-0.1542564212574591,0.042743419322339334
135,-2.1841722206784415,0.41125466622266615,-0.026608788931355442,-0.03384106641389846,0.044207035132098636
136,-2.175947127353988,0.3063766041015011,-0.02728561025963341,0.11559827679764,0.004867969556567962
137,-2.169819595271958,0.2915281514441454,-0.02497364472368061,0.1298416911882578,0.05703849992474438
138,-2.163989032243075,0.10479943630454647,-0.022376810899915455,0.4025059354365341,0.0012881531808791775
139,-2.161893043516984,0.11532604062087878,-0.014326692191184773,0.38014174857605076,0.0007249550139031276
140,-2.1595865227045663,0.11019581952451278,-0.006723857219663757,0.3836243870692099,0.015059809760404082
141,-2.157382606314076,0.22540592911712323,0.0009486305217204409,0.2088363300472432,0.0516392552761331
142,-2.1528744877317334,0.43986699958117775,0.005125357122665305,-0.11257623357217708,0.047618396096710716
143,-2.1440771477401097,0.33293469706410983,0.002873832451221763,0.0493269618283762,0.019155726834207878
144,-2.1374184537988277,0.2771363419228047,0.003860371687789287,0.13386905449291092,0.026572477794437055
145,-2.1318757269603714,0.18554715701691732,0.006537752777647505,0.27238675463152023,0.023260658189487003
146,-2.1281647838200333,0.30010805761914355,0.01198548787027791,0.10247116177896753,0.021661938836016373
147,-2.12216262266765,0.36927939733368287,0.014034911105857261,0.0022452536340275414,0.007504921494289341
148,-2.1147770347209764,0.3888998489972109,0.014079816178537811,-0.023056396898023183,0.02210158442545
149,-2.106999037741032,0.44429188068922054,0.013618688240577348,-0.10199687964493945,0.013709177606031105
150,-2.098113200127248,0.41367607493349007,0.011578750647678559,-0.052073659072371645,0.011620724123025032
151,-2.089839678628578,0.44107370826306935,0.010537277466231126,-0.08976327762247782,0.011136598601770912
152,-2.0810182044633163,0.46578547750066235,0.008742011913781569,-0.12373097136348747,0.012611309122934702
153,-2.071702494913303,0.4389225706124895,0.006267392486511819,-0.0808680319583585,0.011031406200016232
154,-2.062924043501053,0.46355965780482256,0.004650031847344649,-0.11598033560877266,0.026860580532774417
155,-2.0536528503449567,0.5206741308648495,0.002330425135169196,-0.2002840145331877,0.020310378183319062
156,-2.0432393677276597,0.48190713145099173,-0.0016752551554945578,-0.14144852894697596,0.04061764261767142
157,-2.0336012250986397,0.5652724876418369,-0.004504225734434077,-0.2669889125462299,0.0016392179881801305
158,-2.022295775345803,0.5624455612999141,-0.009844003985358675,-0.2640728039361014,0.011223576818505993
159,-2.0110468641198045,0.5824786714731695,-0.015125460064080703,-0.2970151036646108,0.031104235583580244
160,-1.999397290690341,0.6360266672868566,-0.02106576213737292,-0.38177462524721917,0.030236411280496697
161,-1.9866767573446038,0.5886466866901727,-0.028701254642317306,-0.31691329901230847,0.003388092339253876
162,-1.9749038236108003,0.5832994506968241,-0.03503952062256348,-0.3173327588383304,0.01422298618486396
163,-1.9632378345968637,0.5594085751209703,-0.041386175799330086,-0.2918179537560138,0.05840146479593532
164,-1.9520496630944444,0.4556874693626887,-0.04722253487445036,-0.1485335799684959,0.03176043404010995
165,-1.9429359137071907,0.3873545459563208,-0.05019320647382028,-0.06002672468349572,0.048814941616742186
166,-1.9351888227880643,0.2642769776733768,-0.05139374096749019,0.10960651201572803,0.006726868042738422
167,-1.9299032832345968,0.24064258926529192,-0.04920161072717563,0.12990817639245167,0.025418728428931996
168,-1.925090431449291,0.1407770715368564,-0.046603447199326596,0.2650657358299693,0.003813581838589556
169,-1.9222748900185538,0.11709797613437772,-0.04130213248272721,0.28684936040139586,0.004186528169331851
170,-1.9199329304958663,0.14907028178292497,-0.03556514527469929,0.22679242656458473,0.0007262710081203034
171,-1.9169515248602078,0.14513259245708623,-0.031029296743407597,0.22224127686549527,0.002323145498472816
172,-1.914048873011066,0.13097603195689272,-0.026584471206097693,0.23434474638895633,0.002390535820261744
173,-1.9114293523719281,0.1478224697394153,-0.021897576278318565,0.20126910470579193,0.013061451203563883
174,-1.90847290297714,0.06695765161468913,-0.017872194184202727,0.3160998788718552,0.0015785404853375967
175,-1.9071337499448462,0.08614874570252774,-0.011550196606765623,0.2820636896942497,0.00882704074933796
176,-1.9054107750307956,-0.0006999856767229556,-0.005908922812880628,0.4089324148855948,0.0024691955639174145
177,-1.90542477474433,0.1340548672538126,0.0022697254848312674,0.2050664510433599,0.01182757210880651
178,-1.9027436773992539,0.21450374829537378,0.006371054505698466,0.08506073903406244,0.0029271698986040413
179,-1.8984536024333465,0.22749007594235843,0.008072269286379715,0.06745472025493776,0.015376297793745037
180,-1.8939038009144993,0.292439623514767,0.00942136369147847,-0.02759320556571236,0.017593988674433694
181,-1.888055008444204,0.35125237376080476,0.008869499580164223,-0.11303857575785055,0.04242425395388873
182,-1.881029960968988,0.4707079381211377,0.006608728065007213,-0.28960727565760946,0.02390789308829755
183,-1.8716158022065652,0.521591739943678,0.0008165825518550232,-0.3639883597161376,0.0050160202729863075
184,-1.8611839674076915,0.5118905829536965,-0.006463184642467729,-0.34919655383920034,0.004129487548248462
185,-1.8509461557486175,0.5201046865520895,-0.013447115719251735,-0.36341761494902486,0.00382705564119677
186,-1.8405440620175757,0.5128816587063089,-0.020715468018232232,-0.3565373856186025,0.017875375681990466
187,-1.8302864288434495,0.47806527949565475,-0.027846215730604282,-0.31041393399684947,0.0188755833982988
188,-1.8207251232535364,0.5181506963322986,-0.03405449441054127,-0.3787044781752992,0.062312487420331304
189,-1.8103621093268905,0.39728924310230757,-0.041628583974047256,-0.20752749751816973,0.001712977708820077
190,-1.8024163244648443,0.4021919064363573,-0.04577913392441065,-0.22711039057159474,0.007543927226650433
191,-1.7943724863361172,0.3840669561362613,-0.050321341735842545,-0.21340581365964498,0.03428470272157593
192,-1.786691147213392,0.29545791360366097,-0.054589458009035446,-0.09544873011044686,0.027579995712267835
