,X,v,theta,theta_dot,energy
0,0.0,0.0,-0.8726646259971648,0.0,0.0
1,0.0,-0.4409804818239496,-0.8726646259971648,0.19996811846807297,0.2541164411001741
2,-0.008819609636478992,-0.9805456851739258,-0.8686652636278033,0.49498979318813763,0.5192811494579996
3,-0.028430523339957506,-1.476969344201894,-0.8587654677640405,0.7514502873508867,0.8207418550916831
4,-0.05796991022399539,-1.9989348072590971,-0.8437364620170228,1.0404384072200334,1.0334014244621192
5,-0.09794860636917734,-2.485258507098296,-0.8229276938726221,1.3056530609647967,1.3184487863622443
6,-0.14765377651114325,-2.985872660658152,-0.7968146326533262,1.6007946874245698,0.9552869867813076
7,-0.2073712297243063,-3.2868589783564945,-0.7647987389048347,1.7061243627772824,1.3717879491009553
8,-0.2731084092914362,-3.6821385156822224,-0.7306762516492891,1.9303653336676616,1.381797212118478
9,-0.3467511796050807,-4.0386647968669465,-0.6920689449759359,2.132427673504432,1.5721397637843073
10,-0.4275244755424196,-4.410426627829363,-0.6494203915058472,2.3741614497306975,1.3796710812116222
11,-0.5157330080990069,-4.710189253759663,-0.6019371625112332,2.5544842497717717,0.630312905497998
12,-0.6099367931742001,-4.837425784634952,-0.5508474775157978,2.545319831920855,1.385932782350063
13,-0.7066853088668992,-5.114208944174116,-0.49994108087738065,2.7452000391465066,1.1815715899282053
14,-0.8089694877503815,-5.338338429866282,-0.44503708009445053,2.8993118211727835,0.7952105000863121
15,-0.9157362563477072,-5.483020407332447,-0.38705084367099485,2.968631144396249,0.1584005328506425
16,-1.0253966644943562,-5.452719047462478,-0.32767822078306985,2.815568396551259,0.43372506580252773
17,-1.1344510454436056,-5.529637908995551,-0.27136685285204465,2.830185035181987,0.4373780821851672
18,-1.2450438036235167,-5.606574964811851,-0.2147631521484049,2.86256113438369,0.7572459140522922
19,-1.3571753029197537,-5.739694755495638,-0.15751192946073111,2.9949974464495224,0.3439161591062137
20,-1.4719691980296665,-5.67908919935559,-0.09761198053174067,2.8590972419339136,0.11246303630570367
21,-1.5855509820167784,-5.698233405709914,-0.040430035693062395,2.859024482929911,1.0244325461981145
22,-1.6995156501309767,-5.518509567819328,0.016750453965535823,2.577775834353162,0.4805631173616546
23,-1.8098858414873633,-5.431843753924234,0.06830597065259907,2.4527197536343834,0.5808040365369244
24,-1.918522716565848,-5.325961878133139,0.11736036572528674,2.3143336490926707,0.3395272413454967
25,-2.0250419541285107,-5.263645142890072,0.16364703870714015,2.255926340897172,0.6478715051351739
26,-2.1303148569863124,-5.142950197519115,0.20876556552508357,2.125200480561806,1.036422081987407
27,-2.2331738609366947,-4.945295958875178,0.2512695751363197,1.8960886875243375,0.7001587259304453
28,-2.3320797801141984,-4.80801170945939,0.2891913488868064,1.769727264302084,0.49981919566992405
29,-2.428240014303386,-4.708588325178222,0.3245858941728481,1.7106271626239473,1.0164090289916305
30,-2.5224117808069506,-4.499641592994334,0.3587984374253271,1.5073343627468567,0.9119666948111661
31,-2.6124046126668374,-4.3047616676669085,0.3889451246802642,1.3368675081246166,0.8749675151567066
32,-2.6984998460201757,-4.110271355799411,0.41568247484275656,1.1784103668821158,0.8793169257873803
33,-2.780705273136164,-3.9062382599604,0.43925068218039887,1.01714505078293,0.6915021708304855
34,-2.858830038335372,-3.738973925691858,0.4595935831960575,0.9150928617471523,0.910950747089958
35,-2.9336095168492093,-3.5075678475420196,0.4778954404310005,0.7344159342976109,0.9534435595971652
36,-3.00376087380005,-3.2497269403022195,0.49258375911695274,0.5261994177017667,0.5006917019730933
37,-3.068755412606094,-3.106624298680654,0.5031077474709881,0.4760986118692404,0.8336714375834359
38,-3.130887898579707,-2.853470764111479,0.5126297197083729,0.2851735560491883,0.08204402706478742
39,-3.187957313861937,-2.8317811294220205,0.5183331908293567,0.4010195217197503,0.8775060441783636
40,-3.244592936450377,-2.539115824480743,0.5263535812637516,0.16534291383557737,0.42727937373390185
41,-3.295375252939992,-2.38360867454068,0.5296604395404632,0.11135610689744738,0.769303499603818
42,-3.3430474264308057,-2.080071891861582,0.5318875616784121,-0.13302189208166518,0.7092626144368155
43,-3.3846488642680375,-1.7605146714283193,0.5292271238367788,-0.3970327589041467,0.4123441604426957
44,-3.419859157696604,-1.5442244201187252,0.5212864686586959,-0.5286538680214037,0.46827287156818037
45,-3.4507436460989784,-1.2634819204332668,0.5107133912982678,-0.7474241020438134,0.2922602668694404
46,-3.4760132845076437,-1.05254068997178,0.4957649092573915,-0.8797534173359205,0.1487464878135268
47,-3.4970640983070793,-0.9268676946793448,0.47816984091067305,-0.9057101731479016,0.0736313887125869
48,-3.515601452200666,-0.8588621866957538,0.460055637447715,-0.8609914541857099,0.036208210107886975
49,-3.532778695934581,-0.9031183462082091,0.44283580836400077,-0.6709739302411263,0.1515667353071069
50,-3.550841062858745,-0.7516479700807295,0.42941632975917826,-0.7502832637965895,0.2221945787291345
51,-3.5658740222603598,-0.48331479182695586,0.4144106644832465,-0.9938356211503693,0.06639491715752063
52,-3.5755403180968988,-0.36618332868269954,0.3945339520602391,-1.0362814500596684,0.028192927897667735
53,-3.582863984670553,-0.4372119701871269,0.37380832305904577,-0.824916437307384,0.05036448413395809
54,-3.5916082240742955,-0.3387543822016412,0.3573099943128981,-0.8550460647213841,0.04264803369268011
55,-3.598383311718328,-0.45305253517006355,0.3402090730184704,-0.5915991753859813,0.01897759638511523
56,-3.6074443624217296,-0.4190300866624782,0.3283770895107508,-0.5416046975129182,0.06493187924856283
57,-3.6158249641549793,-0.2811651248073135,0.3175449955604924,-0.6425351959979015,0.007779973996173703
58,-3.6214482666511256,-0.2608718750538213,0.3046942916405344,-0.5796560636640016,0.020726114161141233
59,-3.626665704152202,-0.19462541550333162,0.29310117036725436,-0.586248197640068,0.027907387421336156
60,-3.6305582124622684,-0.07556661660037356,0.281376206414453,-0.6722768309776717,0.006620686324291132
61,-3.632069544794276,-0.018065789793346443,0.26793066979489955,-0.6734988415280251,0.0031464180760199744
62,-3.632430860590143,-0.08569682763492949,0.25446069296433904,-0.4978392849833205,0.007213468239664465
63,-3.6341447971428416,-0.024026494575923436,0.24450390726467264,-0.5133593225239226,0.0005276893173098041
64,-3.63462532703436,-0.016340661973949094,0.2342367208141942,-0.4533751230647024,0.005686272665402507
65,-3.634952140273839,0.13225808914665665,0.22516921835290016,-0.6019487175272447,0.009684256148417413
66,-3.632306978490906,0.040040732509870794,0.21313024400235525,-0.40147277232262946,0.004019778540025618
67,-3.6315061638407085,0.21327975744028355,0.20510078855590266,-0.5932646623171565,0.0251234341369727
68,-3.627240568691903,0.07971460576700695,0.19323549530955952,-0.3372383744718143,0.01059493439612867
69,-3.6256462765765627,0.23646706851831112,0.18649072782012324,-0.5115325234375954,0.02249955388761445
70,-3.6209169352061963,0.13139848719723646,0.17626007735137134,-0.3021513204360591,0.010704267031233505
71,-3.6182889654622516,0.21734419171027014,0.17021705094265016,-0.377519904249604,0.000299227101923713
72,-3.6139420816280463,0.21643195544847532,0.16266665285765808,-0.32636882273204115,0.006445821347789017
73,-3.609613442519077,0.24526637400296755,0.15613927640301725,-0.3214361152151429,0.0028757079040781343
74,-3.6047081150390174,0.25521586140352376,0.1497105540987144,-0.29046014174220536,0.022323280424867965
75,-3.599603797810947,0.3429076816274116,0.1439013512638703,-0.37667586171221895,0.004455666905809922
76,-3.592745644178399,0.3542113554129137,0.1363678340296259,-0.3512949855120459,0.028902416623404818
77,-3.5856614170701406,0.4355160057668517,0.12934193431938498,-0.43215175140076717,0.01108438938764113
78,-3.5769510969548035,0.40774532573752803,0.12069889929136964,-0.35292309372934333,0.03503599511666793
79,-3.568796190440053,0.4931942084629059,0.11364043741678277,-0.4447645427767068,0.058963196484843675
80,-3.558932306270795,0.3701238490442183,0.10474514656124864,-0.22801130899138958,0.05945664414998763
81,-3.5515298292899105,0.5297226399384992,0.10018492038142085,-0.4353586191690194,0.02827243369461417
82,-3.5409353764911407,0.47427306788737533,0.09147774799804045,-0.32319620437696744,0.015795965737140774
83,-3.5314499151333933,0.4394712176429152,0.08501382391050111,-0.24435473380617168,0.002773609295915616
84,-3.522660490780535,0.44457651780081825,0.08012672923437768,-0.22702105906376832,0.07671096071786891
85,-3.513768960424519,0.6156838082891907,0.0755863080531023,-0.45932645727818716,0.10654881892592954
86,-3.501455284258735,0.4399450792055064,0.06639977890753856,-0.17426981980014522,0.010916720513532228
87,-3.492656382674625,0.46364148026377205,0.06291438251153567,-0.19022890001918136,0.015318800654323863
88,-3.4833835530693498,0.495580305965857,0.05910980451115204,-0.2195577257253902,0.03489293263193758
89,-3.4734719469500326,0.4246551126773984,0.054718649996644234,-0.09598757507263445,0.018889282035540248
90,-3.4649788446964847,0.4677093990823721,0.052798898495191544,-0.14439308978573817,0.008525246105095752
91,-3.4556246567148374,0.4849869852628501,0.04991103669947678,-0.15475768868093195,0.0261307975335282
92,-3.4459249170095805,0.5376019360390071,0.04681588292585814,-0.2189140797809438,0.02701725675405747
93,-3.4351728782888005,0.4869887348079157,0.042437601330239265,-0.1293186181183148,0.007521351279585144
94,-3.425433103592642,0.5016314633926494,0.03985122896787297,-0.138790025690534,0.006846218416022651
95,-3.4154004743247888,0.5145442797988938,0.037075428454062295,-0.1464307115806624,0.001735420974025497
96,-3.405109588728811,0.5106806482769083,0.03414681422244905,-0.12974156808612258,0.01106188776855559
97,-3.394895975763273,0.4888142326545625,0.0315519828607266,-0.08692385251297657,0.06670280087207646
98,-3.3851196911101815,0.6225670009076311,0.02981350581046707,-0.27817840334070426,0.023244269910800155
99,-3.372668351092029,0.5849639783337232,0.024249937743652986,-0.21303506278461817,0.04580109066927631
100,-3.3609690715253544,0.5069476990069699,0.019989236487960624,-0.08891626781055378,0.0070558502730678615
101,-3.350830117545215,0.5203488002419248,0.01821091113174955,-0.10313745962462643,0.018600032082458272
102,-3.3404231415403767,0.5552775081385863,0.01614816193925702,-0.15016812201713978,0.049298348392190904
103,-3.3293175913776047,0.642738576414106,0.013144799498914225,-0.27659526655399924,0.07509612012405999
104,-3.3164628198493227,0.5262904370681822,0.00761289416783424,-0.09807368798931604,0.03154722632468791
105,-3.305937011107959,0.4672014076199342,0.005651420408047919,-0.0072045429684517714,0.0227904668126089
106,-3.2965929829555605,0.5147446711696622,0.005507329548678884,-0.07685679069323709,0.012778523030840185
107,-3.2862980895321674,0.4902807929298553,0.003970193734814142,-0.03854238313433141,0.027749098044743962
108,-3.2764924736735703,0.545639744308872,0.003199346072127514,-0.12041292186805366,0.06276620822312617
109,-3.2655796787873927,0.43223017890378,0.0007910876347664406,0.05064116175136266,0.04143101174579521
110,-3.2569350752093174,0.5252395844370321,0.0018039108697936938,-0.08864032315282042,0.034351322378280695
111,-3.2464302835205765,0.5895130442279826,3.110440673728546e-05,-0.18452000646727343,0.020319422986915348
112,-3.234640022636017,0.6236253979075597,-0.0036592957226081833,-0.23567939226630735,0.11524183635124065
113,-3.2221675146778654,0.4402405982896682,-0.00837288356793433,0.0383201349180366,0.0027338058665992665
114,-3.213362702712072,0.4343262244175241,-0.007606480869573597,0.0447297857499583,0.01702149210007485
115,-3.2046761782237216,0.4724916871748229,-0.00671188515457443,-0.014753036056007654,0.010910438490965728
116,-3.195226344480225,0.49514796352883633,-0.007006945875694583,-0.050709964520643844,0.028426201330553815
117,-3.1853233852096485,0.43897741127405676,-0.00802114516610746,0.031483770273131914,0.013029294060220886
118,-3.1765438369841674,0.41022957498521506,-0.007391469760644822,0.07224594612205965,0.0003259723251135336
119,-3.168339245484463,0.41110460694334466,-0.005946550838203629,0.06876036171716474,0.02336913245987465
120,-3.1601171533455963,0.46622955325412324,-0.004571343603860334,-0.015673871421880037,0.011029994945838895
121,-3.1507925622805137,0.4894112403742366,-0.004884821032297935,-0.05179000911738366,0.002298191534414448
122,-3.141004337473029,0.49408471315123587,-0.005920621214645609,-0.0602362663181875,0.02378596445824003
123,-3.1311226432100043,0.5413984872038694,-0.007125346541009358,-0.1329463359743317,0.03506146360295534
124,-3.120294673465927,0.4776062449566751,-0.009784273260495992,-0.039355235826286014,0.011555991825597623
125,-3.1107425485667934,0.5014406257065366,-0.010571377977021713,-0.07798162612203852,0.018785898902346398
126,-3.1007137360526627,0.46478216849829285,-0.012131010499462483,-0.026104940066124127,0.030596073548881424
127,-3.0914180926826966,0.40056918008867604,-0.012653109300784966,0.06664102576763423,0.028085711100815272
128,-3.083406709080923,0.33286032656029196,-0.011320288785432281,0.16447626109630653,0.013172278342081381
129,-3.076749502549717,0.2952629830489804,-0.008030763563506151,0.21754056903721972,0.033664178789624834
130,-3.0708442428887373,0.40300627729629873,-0.0036799521827617565,0.05356982005843053,0.008793636559453219
131,-3.062784117342811,0.42421907298736194,-0.002608555781593146,0.02066893847025353,0.03218950600989629
132,-3.054299735883064,0.49812158579882393,-0.002195177012188075,-0.09095136812144501,0.010806940398699696
133,-3.0443373041670876,0.4768096889644248,-0.004014204374616975,-0.05962898141643093,0.0018966110571531725
134,-3.034801110387799,0.47296436945361064,-0.005206784002945593,-0.05504122153889786,0.05153240945974737
135,-3.025341822998727,0.3661752066847247,-0.00630760843372355,0.10360956370057466,0.016603072897981148
136,-3.0180183188650327,0.322591446888911,-0.004235417159712057,0.16712947830069425,0.021912989075283933
137,-3.0115664899272545,0.38739847228296015,-0.0008928275936981719,0.06867460320447061,0.005106805189557146
138,-3.0038185204815955,0.4001692568442536,0.0004806644703912403,0.04925594271994452,0.020342926733971554
139,-2.9958151353447104,0.44948233025466555,0.0014657833247901306,-0.02457234350191241,0.05683409121056824
140,-2.9868254887396173,0.3257945803471502,0.0009743364547518823,0.1613900221932973,0.018405414712177087
141,-2.980309597132674,0.37968294143806974,0.004202136898617828,0.08084397379772863,0.044816558557906325
142,-2.972715938303913,0.4936765650930276,0.005819016374572401,-0.08890952740392262,0.03482824738827447
143,-2.9628424070020523,0.4241972303920588,0.004040825826493948,0.0170184913345255,0.03928406916590715
144,-2.954358462394211,0.5143240070756873,0.004381195653184459,-0.11698257042144784,0.04908068379935378
145,-2.944071982252697,0.6083337342535438,0.002041544244755502,-0.2567077404103397,0.019116073574573227
146,-2.931905307567626,0.5770478247288536,-0.003092610563451292,-0.20917876032972624,0.05912865283186768
147,-2.920364351073049,0.4754490509624314,-0.007276185770045816,-0.057690554522121795,0.03279361083915507
148,-2.9108553700538002,0.4078887646652596,-0.008429996860488252,0.04150801256785175,0.009804554531535854
149,-2.902697594760495,0.4313525965928681,-0.007599836609131217,0.003835125536911163,0.01059275654552761
150,-2.8940705428286377,0.4075132446213356,-0.007523134098392994,0.03735879036814699,0.020953676428576127
151,-2.885920277936211,0.35766520839432836,-0.0067759582910300546,0.10991694819998951,0.030875561139293135
152,-2.8787669737683244,0.44082160175454504,-0.004577619327030264,-0.016806894836854797,0.031794902459352764
153,-2.8699505417332336,0.37039791874466055,-0.00491375722376736,0.08748170752292697,0.030610867180246356
154,-2.86254258335834,0.45023933071036715,-0.0031641230733088204,-0.03372360341007252,0.03134622640460622
155,-2.8535377967441327,0.382129540392587,-0.0038385951415102707,0.06751032001589648,0.016293790149198805
156,-2.845895205936281,0.423452587242365,-0.0024883887411923412,0.004397662206066119,0.0240984299797578
157,-2.8374261541914336,0.47898341086013657,-0.0024004354970710187,-0.07962990086721305,0.06909118060785599
158,-2.8278464859742307,0.3372190769601261,-0.0039930335144152795,0.13231025998050336,0.018589070206728637
159,-2.8211021044350284,0.39011399417843495,-0.0013468283148052123,0.05179456794858431,0.019930225001055235
160,-2.8132998245514598,0.34059014711321145,-0.0003109369558335262,0.1256843037663805,0.03882493171976228
161,-2.8064880216091956,0.44997272935513144,0.0022027491194940843,-0.03848097712856366,0.025323516117703476
162,-2.797488567022093,0.5050606441699019,0.0014331295769228112,-0.12046504116417363,0.03010773435885238
163,-2.7873873541386947,0.4462445153877822,-0.0009761712463606615,-0.0318195986396798,0.05722719051561343
164,-2.778462463830939,0.3207377614697372,-0.0016125632191542577,0.15615344823903565,0.0457958200301373
165,-2.7720477086015443,0.4570451197548673,0.0015105057456264556,-0.04878141673351391,0.025406001150384695
166,-2.762906806206447,0.5115195579153702,0.0005348774109561774,-0.13004889223615948,0.06434843395990035
167,-2.7526764150481395,0.3873466774585679,-0.0020661004337670123,0.05636765575654487,0.02024371556762906
168,-2.744929481498968,0.3367235375016336,-0.0009387473186361149,0.1316947705226982,0.0011578361849506492
169,-2.7381950107489357,0.340033058114441,0.0016951480918178492,0.12645450011972165,0.057168015074635134
170,-2.731394349586647,0.501306444908536,0.004224238094212282,-0.11495685920361134,0.04693835793107306
171,-2.7213682206884764,0.40893549983448607,0.0019251009101400552,0.02484024450213096,0.03449099478438827
172,-2.7131895106917865,0.3268482811159303,0.0024219058001826747,0.14853682373577187,0.03328488241547332
173,-2.706652545069468,0.42415488317168637,0.0053926422748981125,0.0032893883343142194,0.005788321680848362
174,-2.698169447406034,0.41076839591088166,0.005458430041584397,0.02495425640560237,0.00886025276878416
175,-2.6899540794878165,0.3897042627456253,0.005957515169696444,0.058154755922144516,0.0430343317041178
176,-2.682159994232904,0.4966275419908558,0.007120610288139335,-0.10047581766524112,0.03514654172990021
177,-2.672227443393087,0.4268406122913829,0.0051110939348345125,0.00629536481934953,0.01905194117518882
178,-2.6636906311472592,0.47028419169862823,0.005237001231221503,-0.0573664980522989,0.022266949922805698
179,-2.6542849473132866,0.5166595935056092,0.004089671270175525,-0.1253889755157242,0.06177922020772867
180,-2.643951755443174,0.39864201934892823,0.0015818917598610406,0.05283826530379132,0.04763296727145112
181,-2.6359789150561954,0.5144949234235165,0.002638657065936867,-0.12047579739357722,0.03165764237237169
182,-2.625689016587725,0.45378059242900687,0.0002291411180653227,-0.028628853667608437,0.0235256232241075
183,-2.616613404739145,0.5045018998030046,-0.00034343595528684605,-0.10464344524311689,0.03826302932614956
184,-2.606523366743085,0.4298092113438632,-0.002436304860149184,0.007294610669321647,0.024822655955899844
185,-2.597927182516208,0.48614482359232897,-0.002290412646762751,-0.07792482983534378,0.01823596152226931
186,-2.5882042860443613,0.4493126105398098,-0.0038489092434696266,-0.023350035901959998,0.03285896875533214
187,-2.579218033833565,0.5208846066251474,-0.004315909961508826,-0.1318388113484842,0.03096869732155367
188,-2.568800341701062,0.4622674822250799,-0.00695268618847851,-0.04518281723589844,0.004290380842500283
189,-2.5595549920565603,0.45327200636218634,-0.007856342533196479,-0.03373400284113312,0.04061497213049599
190,-2.5504895519293167,0.3656698297412159,-0.00853102259001914,0.09535546592303076,0.006841755208275954
191,-2.5431761553344923,0.38383202632110075,-0.006623913271558525,0.0656050721894029,0.0072696343702663875
192,-2.53549951480807,0.3655918146149582,-0.005311811827770467,0.09101737325617335,0.006112006798543463
