,X,v,theta,theta_dot,energy
0,0.0,0.0,0.17453292519943295,0.0,0.0
1,0.0,0.5108790973938119,0.17453292519943295,-0.7036239797138797,0.18028386705365002
2,0.010217581947876237,0.8746399015777384,0.16046044560515535,-1.189923105783232,0.036427239592133016
3,0.02771037997943101,0.9158010777601748,0.1366619834894907,-1.2038985345963922,0.18720670810239595
4,0.046026401534634505,1.1257750507541353,0.11258401279756286,-1.4758692111105145,0.00017181314723836973
5,0.0685419025497172,1.124572176226365,0.08306662857535257,-1.4410465021499472,0.0704094399762291
6,0.0910333460742445,1.058736394176664,0.05424569853235363,-1.318239823186848,0.0183293138634055
7,0.11220807395777778,1.0759506874735654,0.027880902068616667,-1.3280828664327018,0.048989372919518576
8,0.1337270877072491,1.0285409469327595,0.00131924473996263,-1.248799970844999,0.014128048111382506
9,0.1542979066459043,1.0143403435943394,-0.023656754676937352,-1.227111226532441,0.12455626018000031
10,0.1745847135177911,0.8878834762261909,-0.04819897920758617,-1.044433438106234,0.058924049382571723
11,0.1923423830423149,0.8201371594615054,-0.06908764796971086,-0.957096992168913,0.1350735780957656
12,0.208745126231545,0.6514713978549702,-0.08822958781308912,-0.7249975179334467,0.18884416543066387
13,0.22177455418864442,0.3550548911983684,-0.10272953817175806,-0.30800807521678,0.11577492936698996
14,0.22887565201261179,0.025655769198637268,-0.10888969967609366,0.15333631041312978,0.007013169861218345
15,0.22938876739658454,-0.1825918935397019,-0.10582297346783107,0.43190739918762594,0.0031681672483708056
16,0.2257369295257905,-0.1621659702541195,-0.09718482548407854,0.3703859901994914,0.017608485773295567
17,0.22249361012070812,-0.2788604793930215,-0.08977710568008872,0.5160743963629456,0.018330445518115485
18,0.2169164005328477,-0.34756000479068333,-0.0794556177528298,0.5923496512580959,0.025970357364496984
19,0.20996520043703404,-0.26748623077541167,-0.06760862472766789,0.44928255178059423,0.002448853156295969
20,0.2046154758215258,-0.2761984304410066,-0.058622973692056005,0.44245919907518266,0.004595824427280026
21,0.1990915072127057,-0.2928732437089673,-0.04977378971055235,0.450203168036175,0.004284557407717488
22,0.19323404233852634,-0.2768297692302748,-0.04076972634982885,0.41154030742469005,0.046271507336642356
23,0.18769744695392085,-0.10139335022779172,-0.03253892020133505,0.13662137329361124,0.006318975477661094
24,0.185669579949365,-0.036166478762370724,-0.029806492735462826,0.029268102770695123,0.0009656968318233955
25,0.18494625037411758,-0.06278212796837332,-0.029221130680048925,0.06041203198833352,0.0017231019506117919
26,0.1836906078147501,-0.09036220691758018,-0.028012890040282255,0.09317469936033596,0.007979429594460396
27,0.1818833636763985,-0.18034167750168612,-0.026149396053075535,0.21985623946640154,0.002889510739120518
28,0.1782765301263648,-0.1965156342180408,-0.021752271263747507,0.23642183399578534,0.004545441805433912
29,0.174346217442004,-0.17233462023776774,-0.0170238345838318,0.19376423038797352,0.012682233484273258
30,0.17089952503724865,-0.24775180913016193,-0.01314854997607233,0.30186885595726465,0.027653421621067504
31,0.1659444888546454,-0.1322866234020118,-0.007111172856927036,0.12482048643528751,0.011080209333179401
32,0.16329875638660518,-0.04680714371449671,-0.004614763128221286,-0.0054861583643510126,0.0017446926941260491
33,0.16236261351231523,-0.010568782916633955,-0.004724486295508306,-0.06119985630619068,0.0007189424489087821
34,0.16215123785398255,-0.06303864784135968,-0.00594848342163212,0.016115068903031174,0.005587920307160398
35,0.16089046489715536,-0.15045055877507044,-0.005626182043571497,0.14548177173104504,0.0041039487684022035
36,0.15788145372165396,-0.17820580697390362,-0.002716546608950596,0.18545989631475954,0.015147975202845514
37,0.1543173375821759,-0.09111976972441996,0.0009926513173445948,0.054032658716268,0.007840697089309945
38,0.1524949421876875,-0.004859050941194473,0.002073304491669955,-0.0750665162710249,0.0005350228457070364
39,0.1523977611688636,0.058218843852148594,0.000571974166249457,-0.16907360401768595,0.008646918507009105
40,0.15356213804590657,-0.10872783012857126,-0.002809497914104262,0.08151452638609313,0.006416223766345646
41,0.15138758144333514,-0.16829115624459606,-0.0011792073863823994,0.17003317164780415,0.02330027424244337
42,0.14802175831844322,-0.026697077638691835,0.002221456046573684,-0.042704485484202276,0.0007446380681700339
43,0.14748781676566938,-0.0013615486610678157,0.0013673663368896382,-0.0800545776395522,0.00011464773989506094
44,0.14746058579244803,-0.0237496842753752,-0.00023372521590140586,-0.046070400034478425,0.0014547062631969836
45,0.14698559210694054,-0.07866186250399991,-0.0011551332165909744,0.03622914984582396,0.004640129351035088
46,0.14541235485686055,-0.13742540533124709,-0.0004305502196744951,0.1240347961889591,0.002091939939286591
47,0.1426638467502356,-0.12193281008758296,0.002050145704104687,0.10066932371672677,0.006657795429067922
48,0.14022519054848395,-0.0666147429501523,0.0040635321784392225,0.01829513980571386,0.007046753849305879
49,0.1388928956894809,0.0378350958713773,0.0044294349745535,-0.13718364972589348,0.0015311092966984706
50,0.13964959760690845,-0.009500066717934526,0.0016857619800356304,-0.06487935274977245,0.0003598496207795836
51,0.13945959627254975,0.01867635539592471,0.0003881749250401812,-0.10664831207950487,0.002432569762170149
52,0.13983312338046824,-0.1529460271547109,-0.0017447913165499161,0.15089936577652846,0.0075091829715477855
53,0.13677420283737401,-0.10277262534169114,0.0012731959989806532,0.07512640922721812,0.010150386218448132
54,0.1347187503305402,-0.0031226543112308353,0.0027757241835250157,-0.07397410664437003,6.02117713361867e-05
55,0.13465629724431558,-0.012220611399538672,0.0012962420506376152,-0.05951116172222566,0.00047738223045234866
56,0.1344118850163248,-0.04344308378831964,0.00010601881619310186,-0.012296397428899465,0.0030638283331033246
57,0.13354302334055843,-0.11137560786863081,-0.00013990913238488747,0.08963355765079906,0.003046501491857329
58,0.1313155111831858,-0.08367407892057735,0.0016527620206310937,0.04804013135061595,0.0024699619846847852
59,0.12964202960477425,-0.054127212554769766,0.002613564647643413,0.004205804147894232,0.002228537502290162
60,0.12855948535367887,-0.01385432324380504,0.0026976807306012974,-0.055434936367408844,0.0011317044211310574
61,0.12828239888880277,-0.08132279521174957,0.0015889820032531205,0.04656052050713613,0.00795122175943709
62,0.12665594298456778,0.01659204965997546,0.0025201924133958433,-0.0998444008718842,0.00020274600430952427
63,0.1269877839777673,0.032965939899029226,0.0005233043959581591,-0.12366422244782055,0.0017072931743835494
64,0.1276471027757479,-0.02795439191087836,-0.001949980052998252,-0.032129885759729165,0.0008669713478835979
65,0.12708801493753033,-0.056681489164478974,-0.0025925777681928353,0.010387384424019465,0.006155298649054155
66,0.12595438515424076,-0.16348005133173354,-0.002384830079712446,0.1698224722835669,0.027692391869553676
67,0.12268478412760608,0.010005603478012798,0.0010116193659588922,-0.09110640929660402,0.00029939328377814433
68,0.12288489619716635,-0.03981634526548701,-0.0008105088199731882,-0.01607610837834267,0.00132858479938395
69,0.1220885692918566,-0.007837429930983943,-0.0011320309875400415,-0.06428275519127968,0.0003669472947701276
70,0.12193182069323692,0.02545187930483904,-0.002417686091365635,-0.11454950408922904,0.0003298439311875259
71,0.12244085827933371,0.009591389006328593,-0.004708676173150217,-0.09146963719070464,0.00011463850484172299
72,0.12263268605946027,-0.010924028357885762,-0.006538068916964309,-0.06208119796831444,0.0024900506979262573
73,0.12241420549230256,-0.1875610042897489,-0.007779692876330598,0.20094642444362867,0.002029104138528027
74,0.11866298540650758,-0.1763549964895873,-0.0037607643874580246,0.18185071477814266,0.005222644601748623
75,0.11513588547671583,-0.14598834092431567,-0.00012375009189517132,0.13519539142089204,0.009992549406664135
76,0.11221611865822952,-0.07627394994957225,0.0025801577365226697,0.030587423232561667,0.0010779988027451325
77,0.11069063965923807,-0.06226641498966598,0.003191906201173903,0.010334756263912774,0.004678922309298412
78,0.10944531135944476,-0.13618025062466066,0.0033986013264521585,0.1221433637562315,0.0055219297267393875
79,0.10672170634695154,-0.09498793692269544,0.005841468601576789,0.06135443691298383,0.007051603830277407
80,0.10482194760849763,-0.02045499200376663,0.007068557339836466,-0.04872569101688847,0.00019986898202526204
81,0.10441284776842229,-0.011954863935554321,0.006094043519498696,-0.059397426039743836,0.0012816960897396705
82,0.1041737504897112,0.07328405920967415,0.004906094998703819,-0.18546179889785908,0.0011192877577040916
83,0.10563943167390467,0.09005146519018514,0.0011968590207466373,-0.20917021903526606,0.014312600084670888
84,0.10744046097770837,-0.08333121738366184,-0.002986545359958684,0.05125549501930177,0.0021467075045044576
85,0.10577383663003513,-0.05743270962026504,-0.0019614354595726487,0.011529863593924279,0.005311351672121341
86,0.10462518243762983,0.03365024959126504,-0.0017308381876941631,-0.12567097406605526,0.0007122739222828934
87,0.10529818742945514,0.008802032807579536,-0.004244257669015268,-0.0889075708938495,0.0005660632590110472
88,0.10547422808560673,-0.1071370148861951,-0.006022409086892258,0.08375162627032771,0.00491255378082179
89,0.10333148778788283,-0.06066808174801877,-0.004347376561485704,0.01227891304134264,0.004006379079482792
90,0.10211812615292246,0.004419386394046501,-0.004101798300658851,-0.08662949125686627,1.0171383196091726e-05
91,0.10220651388080339,-0.016121036338060994,-0.005834388125796177,-0.05702504166776072,0.00034956610631929055
92,0.10188409315404216,-0.03426207698213429,-0.006974888959151391,-0.03152924421970882,0.0013624306455948354
93,0.10119885161439948,-0.07139945548204253,-0.007605473843545568,0.02212486778402762,0.005011946488570931
94,0.09977086250475863,-0.1407522268795327,-0.0071629764878650155,0.12391502844968086,0.003601492089238961
95,0.09695581796716797,-0.11464574625753038,-0.004684675918871398,0.08265041504139342,0.008064383057718845
96,0.09466290304201737,-0.04362761922177465,-0.0030316676180435296,-0.025252896263903216,0.003811624859912443
97,0.09379035065758187,-0.1266353265724603,-0.003536725543321594,0.09836678365478743,0.009085064434614333
98,0.09125764412613267,-0.05403085521138032,-0.0015693898702258454,-0.011579037403747133,0.0022918581437092467
99,0.09017702702190507,-0.09499211939867372,-0.001800970618300788,0.04940138277954476,0.0028522621576841296
100,0.0882771846339316,-0.12496948683708015,-0.0008129429627098928,0.09383787593803933,0.005696431989014439
101,0.08577779489719,-0.07891554758555508,0.0010638145560508939,0.024517984683005603,0.006226640729814332
102,0.0841994839454789,-0.15701159375468116,0.001554174249711006,0.14197474907113367,0.02410122875266358
103,0.08105925207038527,-0.0008591329319721785,0.004393669231133679,-0.09179673223278376,0.00035950485845035227
104,0.08104206941174583,-0.07062756226985491,0.002557734586478004,0.014146636249045899,0.005975433367620968
105,0.07962951816634872,0.012635420590321897,0.002840667311458922,-0.10999545636270679,0.0005686195563375495
106,0.07988222657815516,-0.060058102450254724,0.0006407581842047859,-0.00012045667951003647,0.0009650894428960059
107,0.07868106452915007,-0.07574319157255924,0.0006383490506145852,0.0235955550673297,0.005311477993279086
108,0.07716620069769888,-0.006355222849495856,0.0011102601519611792,-0.08029870220297926,0.0013502713972790602
109,0.07703909624070895,-0.13803693803648576,-0.000495713892098406,0.11755016525430766,0.017907923538233405
110,0.07427835747997924,-0.0063646719938474094,0.0018552894129877473,-0.08010394942086559,0.0004558939819882818
111,0.07415106404010229,0.038060587135414076,0.0002532104245704355,-0.14619626865319207,0.0031789468310767423
112,0.07491227578281057,-0.06066597615979534,-0.002670714948493406,0.0019680154062216293,0.005819407976206731
113,0.07369895625961466,-0.15435157972031538,-0.0026313546403689734,0.14171073031109888,0.01436826506035386
114,0.07061192466520835,-0.05954143159385726,0.00020285996585300402,-0.001277616899345746,0.003719120568023421
115,0.06942109603333121,-0.12042421378532042,0.00017730762786608912,0.090106195338307,0.010992138581309565
116,0.06701261175762481,-0.02823920543396026,0.001979431534632229,-0.0481191865728299,0.0009779780273682195
117,0.0664478276489456,-0.05962599632239042,0.0010170478031756307,-0.00045713998259949706,0.000341680605046124
118,0.0652553077224978,-0.0540518992745741,0.0010079050035236407,-0.00851926922741276,0.0006213688645840829
119,0.06417426973700631,-0.042930735628238514,0.0008375196189753855,-0.024904682202788936,0.004108946935915398
120,0.06331565502444154,-0.13392042791024147,0.0003394259749196067,0.11182603909161434,0.0077251182909193646
121,0.060637246466236715,-0.0754275346806711,0.0025759467567518938,0.02418649553619326,0.0006730932879083178
122,0.059128695772623294,-0.08429929845940001,0.003059676667475759,0.038251424561801445,0.0011569678025725699
123,0.05744270980343529,-0.09801492808677487,0.003824705158711788,0.059724316239246254,0.008915415034732196
124,0.055482411241699794,-0.00680075443607063,0.005019191483496713,-0.07597148292689723,4.819535274468778e-06
125,0.05534639615297838,-0.007331259164893909,0.0034997618249587685,-0.07370009975675419,0.00023787568270021927
126,0.0551997709696805,0.014345765337343238,0.002025759829823685,-0.10518650950366196,0.0016445614010233537
127,0.05548668627642736,-0.153432648680679,-7.797036024955427e-05,0.14707616812160193,0.008063384942228259
128,0.052418033302813784,-0.09982432707564723,0.0028635530021824842,0.06664076267259304,0.007559781878175774
129,0.05042154676130084,-0.023669547996968035,0.004196368255634345,-0.046749054165445975,0.00029772090652601107
130,0.04994815580136148,-0.012469212988446948,0.0032613871723254258,-0.06231568010790832,0.0001082101685641782
131,0.04969877154159254,-0.0056167019961053735,0.0020150735701672594,-0.07163554580182371,4.561353688097841e-05
132,0.04958643750167043,-0.0006301848395312021,0.000582362654130785,-0.07852287512209602,8.257828340547448e-05
133,0.049573833804879806,-0.019823194138570664,-0.0009880948483111354,-0.049562151444828034,0.0033841912192154626
134,0.049177369922108395,-0.16936724525060523,-0.001979337877207696,0.17446331588168207,0.014267319802249467
135,0.04579002501709629,-0.08311752349478713,0.0015099284404259455,0.04450706172242358,0.01515007296720745
136,0.04412767454720055,0.09912423276555793,0.002400069674874417,-0.22841134225781484,0.01914911629186254
137,0.04611015920251171,-0.11143130253806488,-0.00216815717028188,0.08812667085230746,0.004353174978551455
138,0.04388153315175041,-0.07186588158995946,-0.00040562375323573087,0.02814124121643366,0.0030136019895591814
139,0.04244421551995122,-0.030207770973459697,0.00015720107109294234,-0.03446517294797087,0.002835974988630359
140,0.04184006010048203,-0.11728665420762255,-0.0005321023878664751,0.09619936740405281,0.0019624993392039526
141,0.03949432701632958,-0.13423559857041245,0.0013918849602145812,0.12146634225448368,0.0035772476505374524
142,0.03680961504492133,-0.10714127189996692,0.0038212118053042544,0.08123410566324887,0.016028363467939552
143,0.03466678960692199,0.04396475126634522,0.005445893918569232,-0.1442998407524349,0.0032413262950108605
144,0.03554608463224889,-0.040652785396730465,0.002559897103520534,-0.01577433303021833,0.0005917344362667087
145,0.034733028924314284,-0.0267348339950826,0.0022444104429161674,-0.03589858280226109,0.0014558813767746313
146,0.034198332244412634,-0.07683901505941569,0.0015264387868709455,0.0399173556152608,0.003485723880428641
147,0.03266155194322432,-0.12218878068185157,0.0023247858991761617,0.10839069762875725,0.014344382598924005
148,0.03021777632958729,-0.0028780761005726407,0.0044925998517513065,-0.06989138918207355,6.393284693351937e-05
149,0.030160214807575837,-0.013243738017270742,0.0030947720681098355,-0.053022233304616834,0.00048166900311710325
150,0.029895340047230424,0.016731415522388313,0.002034327402017499,-0.09707488676079729,0.00015201421371346426
151,0.03022996835767819,0.02874117614781991,9.282966680155321e-05,-0.11449139857860977,0.0008408409940359805
152,0.030804791880634588,0.06359270763094782,-0.0021969983047706422,-0.16674140365605536,0.001329800417767113
153,0.032076646033253546,0.04046253928701292,-0.005531826377891749,-0.13269215185565209,0.004866589038906565
154,0.0328858968189938,-0.09735287036674074,-0.00818566941500479,0.07240145099498377,0.00013548472297869946
155,0.030938839411658987,-0.0986407625090208,-0.006737640395105115,0.07192666455470845,0.00234908959242535
156,0.02896602416147857,-0.07451404918305632,-0.005299107104010946,0.03375656471218201,0.0005396030498816117
157,0.027475743177817445,-0.08165158707340954,-0.004623975809767305,0.04290479103134299,0.0020530729969928394
158,0.025842711436349253,-0.10671652481289004,-0.0037658799891404455,0.07914235165969555,0.0035828109024952843
159,0.02370838094009145,-0.0727656224687541,-0.0021830329559465343,0.027109193158212815,0.003419609008130579
160,0.022253068490716368,-0.11937271607499572,-0.001640849092782278,0.09637785580414263,0.010871986188119439
161,0.019865614169216454,-0.02710954053351332,0.0002867080233005747,-0.04249913061888466,0.002152468986877562
162,0.01932342335854619,-0.09942337657402556,-0.0005632745890771186,0.06605591114135044,0.009594996676415253
163,0.01733495582706568,-0.0023307633531348404,0.0007578436337498903,-0.07974858830638616,5.2596326711926396e-05
164,0.01728834056000298,0.00627423616421318,-0.000837128132377833,-0.09243327786885067,0.00017509706301046605
165,0.017413825283287245,-0.07612987087384585,-0.0026857936897548467,0.030926723735487438,0.0039321007270280576
166,0.015891227865810327,-0.12742944993507624,-0.002067259215045098,0.10708619239537104,0.010092356150743052
167,0.013342638867108802,-0.04706329455352051,7.446463286232266e-05,-0.014070556866154146,0.0028370453384259494
168,0.012401372976038392,-0.1050870636061556,-0.00020694650446076028,0.07298698907353425,0.016558754053781006
169,0.01029963170391528,0.05365585333523748,0.0012527932770099249,-0.16518822351158757,0.0019155644685105821
170,0.01137274877062003,0.013140576393297222,-0.0020509711932218265,-0.1040470346628479,0.0009563659354457729
171,0.011635560298485973,-0.09775841644863839,-0.004131911886478785,0.06169811962107985,0.004576296798237709
172,0.009680391969513206,-0.05067982609973227,-0.002897949494057188,-0.010133941722323708,0.00327398985882347
173,0.00866679544751856,-0.11309633845020747,-0.003100628328503662,0.08263843770932688,0.013244955762805263
174,0.006404868678514411,0.0051289454265461,-0.0014478595743171244,-0.09561021892022978,2.870426204535058e-05
175,0.006507447587045333,-0.030613697237462885,-0.00336006395272172,-0.0424219816857389,0.0009029139166905179
176,0.005895173642296075,-0.05763490675047304,-0.004208503586436498,-0.002878253161978553,0.006099885625558702
177,0.004742475507286614,-0.16059583323261242,-0.0042660686496760695,0.15032447246671554,0.015152663466963529
178,0.0015305588426343655,-0.25667668655383,-0.0012595792003417586,0.29319022061565314,0.06387972050649222
179,-0.003602974888442235,-0.000559696461154835,0.004604225211971305,-0.09135527595553888,0.00011712473157061225
180,-0.0036141688176653313,-0.024875156629553127,0.0027771196928605274,-0.053528834868122994,0.0001721030398770286
181,-0.0041116719502563934,-0.01876646348257537,0.0017065429954980676,-0.06187536711391942,0.0013258991020845118
182,-0.004487001219907901,0.041154438569454346,0.0004690356532196791,-0.15125486591460893,0.002994003719707315
183,-0.003663912448518814,-0.04406363175829553,-0.0025560616650724998,-0.023289878006619857,0.005481020936677384
184,-0.004545185083684725,-0.162534676389401,-0.003021859225204897,0.15366462711052345,0.012835709526158166
