,X,v,theta,theta_dot,energy
0,0.0,-2.0,-0.3490658503988659,0.0,1.1812499931539129
1,-0.04,-2.566759164846549,-0.3490658503988659,0.6983151853158829,1.1302173696299063
2,-0.091335183296931,-2.993314024529289,-0.3350995466925482,1.1990069441844953,1.3613576303495134
3,-0.15120146378751678,-3.4373095466840518,-0.31111940780885833,1.73127029208484,0.9222357539049788
4,-0.21994765472119782,-3.699846791590921,-0.2764940019671615,2.0161695243915485,0.7022913263926409
5,-0.29394459055301625,-3.885881116934095,-0.23617061147933055,2.204364756787192,0.10574175967187022
6,-0.37166221289169815,-3.91086202754705,-0.19208331634358672,2.1720054679691896,0.01699718168447977
7,-0.44987945344263913,-3.9047212371969087,-0.1486432069842029,2.1068378216837833,0.33279207820092205
8,-0.5279738781865773,-3.98835024157684,-0.10650645055052724,2.1873577005536733,0.7701325491684285
9,-0.607740883018114,-3.794306855908891,-0.06275929653945378,1.866688198737987,0.2898687090903579
10,-0.6836270201362918,-3.7174090745212744,-0.025425532564694035,1.7331294885993156,0.1993813073681555
11,-0.7579752016267174,-3.6636625096281983,0.00923705720729228,1.645061397306695,0.40022348950170683
12,-0.8312484518192813,-3.554974614247586,0.04213828515342618,1.4847521655881757,0.6925259154234124
13,-0.902347944104233,-3.361787662662179,0.0718333284651897,1.207613962161365,0.19527490783069743
14,-0.9695836973574766,-3.305126396272059,0.09598560770841699,1.143942089373093,0.4896992778135882
15,-1.0356862252829178,-3.159623285646823,0.11886444949587885,0.9548685237684329,0.42617970044145564
16,-1.0988786909958543,-3.027931218892956,0.1379618199712475,0.7935881806402519,0.12606428535178238
17,-1.1594373153737134,-2.988751705247054,0.15383358358405255,0.7758095438125819,0.32897624805532844
18,-1.2192123494786544,-2.8823640079337443,0.1693497744603042,0.6631614106019766,0.6236161041581475
19,-1.2768596296373294,-2.6718370644688068,0.18261300267234373,0.40143970411045216,0.4151680601008367
20,-1.3302963709267055,-2.5221098722388904,0.19064179675455278,0.23397361757897875,0.04672802269561516
21,-1.3807385683714832,-2.5066580811110146,0.19532126910613234,0.2669256414511489,0.40234405818750757
22,-1.4308717299937035,-2.3524581076346522,0.20065978193515532,0.09708378627435257,0.4436818767983623
23,-1.4779208921463964,-2.1714413560451957,0.2026014576606424,-0.11039438729901926,0.11972323892482135
24,-1.5213497192673004,-2.1207467902968946,0.200393569914662,-0.12572274115046314,0.04103278842059891
25,-1.5637646550732383,-2.1047610430020276,0.19787911509165274,-0.09069932760916347,0.3328467348968636
26,-1.6058598759332787,-1.9539632189561262,0.19606512853946947,-0.2546844575876374,0.14575907650952272
27,-1.6449391403124012,-1.8845275430133475,0.1909714393877167,-0.2995679240600774,0.301448907013012
28,-1.6826296911726681,-1.7326255487273619,0.18498008090651516,-0.4674736656027265,0.08347725370591076
29,-1.7172822021472154,-1.7815022945067278,0.17563060759446064,-0.34133478456583877,0.009920467819027558
30,-1.75291224803735,-1.7893188529674147,0.16880391190314387,-0.278419966121976,0.07340923885359414
31,-1.7886986250966983,-1.752009918597432,0.16323551258070434,-0.28419493298396936,0.06683749092443593
32,-1.823738823468647,-1.7174140073416655,0.15755161392102496,-0.28762055934874425,0.10748002572360502
33,-1.8580871036154802,-1.7801109916863034,0.15179920273405006,-0.14861111113672007,0.2847526785412289
34,-1.8936893234492063,-1.627029055995509,0.14882698051131565,-0.33113572549365033,0.0014075422244109288
35,-1.9262299045691165,-1.6299478612961888,0.14220426600144265,-0.2832121300420721,0.07206071681725047
36,-1.9588288617950402,-1.5892112706550232,0.1365400234006012,-0.3020329341694666,0.03736315779784364
37,-1.9906130872081407,-1.6138420623437797,0.13049936471721188,-0.22541245744930122,0.20469595851121208
38,-2.022889928455016,-1.4928661238391152,0.12599111556822584,-0.36707537644359334,0.08624627999734609
39,-2.0527472509317986,-1.5503158825370853,0.11864960803935398,-0.2446403239036216,0.09578530532093443
40,-2.0837535685825403,-1.4922031920938452,0.11375680156128155,-0.2963953111691354,0.09602490815383784
41,-2.1135976324244172,-1.431644747869271,0.10782889533789884,-0.35327344936890837,0.24863627550059786
42,-2.1422305273818028,-1.6005895240435453,0.10076342635052067,-0.06968780987611733,0.22217303767622754
43,-2.1742423178626735,-1.466967989535552,0.09936967015299833,-0.2395291088661228,0.010212542931429841
44,-2.2035816776533848,-1.461639950541462,0.09457908797567588,-0.21831511418475008,0.04060003946086304
45,-2.232814476664214,-1.4898830420825664,0.09021278569198088,-0.14837500085914812,0.07547687451000952
46,-2.2626121375058657,-1.4419941724260732,0.08724528567479792,-0.19342960269379372,0.008758706607082863
47,-2.291452020954387,-1.4373483642257217,0.08337669362092204,-0.17475422376262564,0.04218160368550888
48,-2.320198988238902,-1.4100757244224629,0.07988160914566952,-0.1910367159390789,0.0896794750616703
49,-2.348400502727351,-1.4728536222291106,0.07606087482688795,-0.07370992791692017,0.024878021852978563
50,-2.3778575751719333,-1.4575045638981046,0.07458667626854955,-0.07432660695042363,0.0077294160729007525
51,-2.4070076664498954,-1.4534096390086213,0.07310014412954108,-0.05854376013477938,0.004166415343464947
52,-2.4360758592300678,-1.4516630757464175,0.0719292689268455,-0.03968430130472682,0.11334204747260722
53,-2.465109120744996,-1.37664057344743,0.07113558290075096,-0.1307980910925265,0.014683610806537586
54,-2.492641932213945,-1.3880134039701566,0.06851962107890043,-0.09288576178170886,0.04523297555469578
55,-2.5204022002933484,-1.3573057076050608,0.06666190584326626,-0.11871021134621038,0.10161728662291608
56,-2.5475483144454496,-1.285529010150939,0.06428770161634205,-0.20655203647995785,0.03024512727037806
57,-2.5732588946484682,-1.3092260585481694,0.060156660886742895,-0.15219232398979451,0.0003318296813970416
58,-2.5994434158194317,-1.3098392169429132,0.057112814406947,-0.13359885697097829,0.10802317155124332
59,-2.62564020015829,-1.3907245938093866,0.05444083726752744,0.00431342418613509,0.02729170402799383
60,-2.6534546920344777,-1.3723596426738942,0.05452710575125014,-0.007195488921823687,0.02740113615454877
61,-2.6809018848879558,-1.3926105077289825,0.054383195972813665,0.03915868874245561,0.01858375703059281
62,-2.7087540950425355,-1.3803557665258714,0.05516636974766278,0.03678453270020071,0.0041114848468913065
63,-2.736361210373053,-1.3840538731532095,0.055902060401666794,0.058533941245192705,0.047468510226148494
64,-2.764042287836117,-1.4183704555757919,0.05707273922657065,0.12635505227584287,0.20900608623789926
65,-2.792409696947633,-1.2748745261667218,0.059599840272087506,-0.07176810270295461,0.013402277059373658
66,-2.8179071874709676,-1.2654993000246693,0.05816447821802841,-0.06829399147731773,0.09213102852985684
67,-2.843217173471461,-1.337166539444088,0.05679859838848206,0.056115791655588096,0.16783827295066872
68,-2.8699605042603427,-1.2153178280862467,0.05792091422159382,-0.10967272352500844,0.1560107743947811
69,-2.8942668608220674,-1.3408437471131969,0.055727459751093646,0.09531963344367457,0.014471908566121116
70,-2.9210837357643316,-1.3310790600500753,0.05763385241996714,0.09707073483282742,0.11081700197303794
71,-2.947705316965333,-1.2504302249476191,0.059575267116623684,-0.006766683761353073,0.09543455555728829
72,-2.9727139214642855,-1.3257046746603889,0.05943993344139662,0.12344944585625357,0.0015857979444132062
73,-2.9992280149574935,-1.3277256872073326,0.06190892235852169,0.14394066279372603,0.048601777017344874
74,-3.02578252870164,-1.2927308651481675,0.06478773561439621,0.10973859017474685,0.1292549114274717
75,-3.0516371460046035,-1.1957621131783636,0.06698250741789115,-0.01637510653345503,0.1645455914620373
76,-3.0755523882681706,-1.3308432609704501,0.06665500528722205,0.20547037270392327,0.09778527610582359
77,-3.1021692534875798,-1.2596272482805317,0.07076441274130052,0.11846563336762468,0.19998323206037968
78,-3.1273617984531903,-1.105139477539523,0.07313372540865301,-0.09189867680824972,0.0186916069430813
79,-3.1494645880039807,-1.0897511435250646,0.07129575187248802,-0.09343732286296784,0.003922681528593226
80,-3.171259610874482,-1.0872722646139075,0.06942700541522866,-0.07620299711947343,0.1484860528555819
81,-3.1930050561667604,-1.2210317284178005,0.06790294547283919,0.14434798728375303,0.0638330773574612
82,-3.2174256907351166,-1.1707403355658608,0.07078990521851425,0.08903287244971475,0.0517171489412137
83,-3.2408404974464338,-1.128520670063893,0.07257056266750854,0.04665684074822453,0.06282050560799718
84,-3.263410910847712,-1.0751676504875962,0.07350369948247303,-0.011845020914177218,0.07912165753433524
85,-3.2849142638574635,-1.0044865411063328,0.07326679906418948,-0.09598977355338904,0.00198064487749155
86,-3.3050039946795904,-1.0036178130949454,0.0713470035931217,-0.07576819712180852,0.02397882211325905
87,-3.3250763509414893,-1.0278582779168337,0.06983163965068552,-0.018541778243835606,0.008630735994900923
88,-3.345633516499826,-1.0206737295641233,0.0694608040858088,-0.008778514984685596,0.00730519297110196
89,-3.366046991091108,-1.0286438212051723,0.06928523378611509,0.023552852238694667,0.00019419830972501224
90,-3.3866198675152117,-1.029818224009459,0.06975629083088898,0.04566379514680741,0.0443223406005107
91,-3.4072162319954007,-0.9887559890808175,0.07066956673382513,0.004711958263910597,0.15885140399886186
92,-3.426991351777017,-0.8330496847895116,0.07076380589910335,-0.2075049579597085,0.09358495972605224
93,-3.4436523454728074,-0.9423942008189853,0.06661370673990917,-0.023111470821133573,0.016415638308392544
94,-3.462500229489187,-0.9263765325312568,0.0661514773234865,-0.027514736480857845,0.03268844373887742
95,-3.481027760139812,-0.9616905271597745,0.06560118259386935,0.044774749629124484,0.08065251804699015
96,-3.5002615706830076,-0.8806609966667547,0.06649667758645184,-0.05723518883991759,0.09253616159771065
97,-3.5178747906163426,-0.7794326543478173,0.06535197380965348,-0.18920649811971774,0.08731950609117725
98,-3.533463443703299,-0.8884376258446121,0.06156784384725912,-0.006848270220233904,0.03261216670204832
99,-3.551232196220191,-0.8535285339600236,0.06143087844285444,-0.04102318192023641,0.0005181029702231371
100,-3.568302766899391,-0.8549977411457091,0.060610414804449717,-0.020774207169960757,0.10916949083004138
101,-3.5854027217223052,-0.7314654607383525,0.0601949306610505,-0.18792382012383418,0.017728000245243403
102,-3.600032030937072,-0.7556908415241795,0.05643645425857382,-0.13396493923381034,0.05604483120994481
103,-3.6151458477675558,-0.8282579542689779,0.05375715547389761,-0.008704061798038898,0.06739636274276882
104,-3.6317110068529352,-0.7496953087820627,0.05358307423793683,-0.11058080370704942,0.059547929896677995
105,-3.6467049130285765,-0.6735008345710037,0.05137145816379584,-0.20896259367873535,0.13285612906183003
106,-3.6601749297199966,-0.863974928973924,0.04719220629022113,0.09146819777490653,0.012004074676164846
107,-3.677454428299475,-0.878268616973219,0.049021570245719265,0.12675421828006447,0.14133330769294397
108,-3.6950198006389394,-0.7209642985435928,0.05155665461132056,-0.09451223100953643,0.041244941616244146
109,-3.7094390866098115,-0.7771735378080415,0.049666409991129826,0.004840538133725772,0.06602794075350764
110,-3.7249825573659723,-0.6949891335825651,0.04976322075380434,-0.10368813097603259,0.02668326959527394
111,-3.7388823400376237,-0.6585023688345211,0.04768945813428369,-0.14372617655736786,0.1213299219134996
112,-3.752052387414314,-0.8371479811217151,0.04481493460313633,0.13795296820680347,0.07386181948012602
113,-3.768795347036748,-0.751074371053756,0.0475739939672724,0.022143363643612662,0.002785809172774939
114,-3.783816834457823,-0.755378371153479,0.048016861240144655,0.04257353810899083,0.07003857198201183
115,-3.7989244018808925,-0.6653905712718032,0.048868332002324474,-0.07814105031635246,0.02895256932767363
116,-3.8122322133063284,-0.623871528997765,0.047305510995997425,-0.12598369253725433,0.03209852135251331
117,-3.8247096438862838,-0.6742795319017896,0.04478583714525234,-0.0365536414733917,0.03755583264389085
118,-3.8381952345243198,-0.6207229643986497,0.044054764315784506,-0.10364530464274281,0.01999549350536579
119,-3.850609693812293,-0.5901668005961588,0.04198185822292965,-0.1364871679830455,0.030978985935013564
120,-3.862413029824216,-0.6414401179401766,0.03925211486326874,-0.04730591699541832,0.027633613394038456
121,-3.8752418321830198,-0.683887123361859,0.03830599652336037,0.027852706582810804,0.10947127828090285
122,-3.8889195746502567,-0.5279952904361077,0.038863050655016586,-0.1945542939717974,0.053797418531508136
123,-3.8994794804589787,-0.6263082258886695,0.034971964775580636,-0.03577338001207769,0.02603790588056584
124,-3.912005644976752,-0.5863582279947417,0.03425649717533908,-0.08538207336237896,0.10706044437574973
125,-3.923732809536647,-0.7637951153851428,0.032548855708091504,0.19068654581528283,0.10758704473885164
126,-3.9390087118443495,-0.6252717919562489,0.03636258662439716,-0.007420708436195467,0.000591804009736945
127,-3.9515141476834743,-0.6267155760308772,0.03621417245567325,0.005431780768343554,0.04648555716881599
128,-3.9640484592040917,-0.6996201784255902,0.03632280807104012,0.1253616229158398,0.10301807743951595
129,-3.9780408627726036,-0.5553180380416861,0.038830040529356916,-0.08027225744582439,0.004132331183082081
130,-3.9891472235334375,-0.5630857818348318,0.03722459538044043,-0.057216261306434285,0.02815599042130749
131,-4.000408939170134,-0.5150645866180456,0.03608027015431174,-0.11825664998211213,0.08331276632717854
132,-4.010710230902495,-0.6717441634935903,0.0337151371546695,0.12721505758254065,0.03940765842851016
133,-4.0241451141723665,-0.6145010600087513,0.036259438306320314,0.05130957189619931,0.03214653396648812
134,-4.036435135372542,-0.5637937953362601,0.0372856297442443,-0.01404339108901026,0.026250818275552094
135,-4.047711011279267,-0.6096974091795968,0.037004761922464095,0.06572360859005884,0.05962056214122934
136,-4.059904959462859,-0.5143655093511069,0.03831923409426527,-0.0662994278801267,0.05553915990182408
137,-4.070192269649881,-0.6196323892562838,0.036993245536662736,0.10274807657726569,0.07324143317061864
138,-4.082584917435006,-0.5039800199165736,0.03904820706820805,-0.0597382545299298,0.004822415738288029
139,-4.092664517833337,-0.5138235175764277,0.03785344197760945,-0.033507007679130105,0.020445738678774555
140,-4.102940988184866,-0.47566363534534295,0.03718330182402685,-0.07957957254182002,0.009949226224578495
141,-4.112454260891773,-0.49644652226564645,0.03559171037319045,-0.037497418618728524,0.031680779420535744
142,-4.122383191337086,-0.5589964199278027,0.03484176200081588,0.06672976065526892,0.00010333053114554529
143,-4.1335631197356415,-0.5596768105549631,0.03617635721392126,0.07799113283445662,0.03312709694555286
144,-4.144756655946741,-0.502086590207642,0.0377361798706104,0.0022958529003777456,0.03087763135190099
145,-4.154798387750893,-0.4426223449822171,0.037782096928617954,-0.07574520984639109,0.0054332148473211226
146,-4.163650834650538,-0.4312813578076636,0.036267192731690136,-0.0816392562732284,0.004894297634272657
147,-4.172276461806691,-0.4427767778704168,0.03463440760622557,-0.05374724756992828,0.005095436911236482
148,-4.1811319973640995,-0.454437629225483,0.033559462654827,-0.02608598001897667,0.022067117300965285
149,-4.190220749948609,-0.40767080346090556,0.03303774305444747,-0.08633208933288561,0.03254109222091575
150,-4.198374166017827,-0.3310171261965311,0.03131110126778976,-0.1915385311609239,0.009210476208846637
151,-4.204994508541758,-0.357913552422459,0.02748033064457128,-0.14200970715064198,0.052574631912803885
152,-4.212152779590207,-0.49907041972467703,0.02464013650155844,0.07772385129734885,0.044617352931745735
153,-4.2221341879847,-0.4115853528787618,0.026194613527505416,-0.046220447347863736,0.01679376525448283
154,-4.230365895042276,-0.3723574189447113,0.025270204580548142,-0.0973418262901935,0.0019417184839731444
155,-4.23781304342117,-0.3676919106652803,0.023323368054744272,-0.09690920488910125,0.032812432989122384
156,-4.245166881634476,-0.2819975140491775,0.021385183956962248,-0.2185593908612726,0.025113618262838356
157,-4.250806831915459,-0.36622820826661623,0.017013996139736795,-0.08595547423063182,0.03190817277367416
158,-4.258131396080791,-0.4505745544053481,0.015294886655124159,0.04554760676943409,0.014629085159027024
159,-4.267142887168898,-0.4826152224535175,0.01620583879051284,0.09809950876795516,0.027267747099503983
160,-4.2767951916179685,-0.42721262122430564,0.018167828965871942,0.019770827498330812,0.007590559200827718
161,-4.285339444042455,-0.44484349977672694,0.01856324551583856,0.05155382876352358,0.022292186394599116
162,-4.294236314037989,-0.39596181346781834,0.01959432209110903,-0.016298787063060143,0.011311768628032062
163,-4.302155550307345,-0.42406096897615586,0.019268346349847826,0.03160221729470827,0.01505635278108106
164,-4.310636769686869,-0.45909315959282515,0.019900390695741992,0.08980529204219106,0.011082787567837121
165,-4.319818632878725,-0.4831406885922059,0.021696496536585813,0.13171977190015813,0.034517614393861716
166,-4.329481446650569,-0.4128777399944624,0.024330891974588976,0.03272842414703167,0.011834454209071425
167,-4.337739001450458,-0.3851623932092506,0.02498546045752961,-0.0016797147037495158,0.002595921714818036
168,-4.345442249314644,-0.3920943781634617,0.024951866163454618,0.016059978415321058,0.010537342882180216
169,-4.353284136877913,-0.41871877878624725,0.025273065731761038,0.0633192352825328,0.056494809404292745
170,-4.361658512453638,-0.28654416914863046,0.026539450437411693,-0.12744987447826586,0.019283009724262484
171,-4.367389395836611,-0.35127393877616386,0.023990452947846377,-0.022587729461727102,0.0072569303656273175
172,-4.374414874612134,-0.3315223906380156,0.023538698358611835,-0.04515400957801606,0.0060232762336031335
173,-4.381045322424894,-0.34947543691144467,0.022635618167051515,-0.011312161988464436,0.006163099488248027
174,-4.388034831163123,-0.3326206961439785,0.022409374927282226,-0.029933493041711473,0.0004177668671785028
175,-4.394687245086003,-0.3317216240176027,0.021810705066447996,-0.02469395780443988,0.005574152499311576
176,-4.401321677566355,-0.3483723166061711,0.0213168259103592,0.006687979579483,0.028444407678905378
177,-4.408289123898479,-0.42840283655011796,0.02145058550194886,0.13297315789196718,0.04536344419567294
178,-4.416857180629481,-0.3239285040104419,0.024110048659788202,-0.017396300137240528,0.03331207151673759
179,-4.423335750709691,-0.4243551124536334,0.023762122657043392,0.14028749916519823,0.06313122085114865
180,-4.4318228529587635,-0.27734656032758664,0.026567872640347358,-0.07317767029349645,0.033274910722410754
181,-4.437369784165315,-0.39338425750755995,0.02510431923447743,0.10862748571426406,0.04941032897240259
182,-4.445237469315466,-0.26965274517272136,0.02727686894876271,-0.06953140703905561,0.01896578833186765
183,-4.45063052421892,-0.337863890265499,0.025886240807981596,0.04076565479570253,0.0014464913981082407
184,-4.45738780202423,-0.3424345937312175,0.026701553903895645,0.05522911786706722,0.01974901823086075
185,-4.464236493898854,-0.2861390909098026,0.02780613626123699,-0.021334711230053344,0.012840440263532753
186,-4.46995927571705,-0.3301676562740846,0.027379442036635924,0.052856557558264516,0.053031333210064445
187,-4.476562628842532,-0.17271861304707586,0.028436573187801215,-0.17517994066992937,0.020484019491242466
188,-4.480017001103474,-0.28372636353082176,0.024932974374402627,-0.0003764084675338675,0.0061983881271098695
189,-4.48569152837409,-0.26277250610778774,0.024925446205051948,-0.024467890577449095,0.005261687102281968
190,-4.490946978496246,-0.24367763730996994,0.024436088393502964,-0.04577397440819406,0.027369725276375368
191,-4.495820531242446,-0.35267557627634083,0.023520608905339083,0.12485761766937645,0.014055965865373802
