,X,v,theta,theta_dot,energy
0,0.0,-2.0,0.0,0.0,0.38559545558638714
1,-0.04,-2.1880953370071037,0.0,0.28214300551065585,0.5788377683430966
2,-0.08376190674014208,-2.4477042977402848,0.005642860110213117,0.6715564466104276,0.1180742950361919
3,-0.13271599269494777,-2.4954391373794107,0.01907398904242167,0.74481655816535,0.05794897475572836
4,-0.18262477544253597,-2.518668723917429,0.03397032020572867,0.7852620124266426,0.05326583604213299
5,-0.23299814992088455,-2.540062225305205,0.049675560454261525,0.8273191038861258,0.11272658911553221
6,-0.28379939442698865,-2.496801561168197,0.06622194253198405,0.7771067646920181,0.42965390714776514
7,-0.3337354256503526,-2.3274766812664756,0.08176407782582441,0.5431311767704465,0.4550798320017492
8,-0.38028495927568207,-2.1359207924141823,0.09262670136123334,0.28076913753824395,0.4864753575186112
9,-0.4230033751239657,-1.9138399965560362,0.09824208411199822,-0.023730710646683584,0.22599819631633647
10,-0.4612801750550864,-1.8001783210137743,0.09776746989906455,-0.16456439651168073,0.18054637147626848
11,-0.49728374147536186,-1.7041914894045151,0.09447618196883094,-0.27915920871005584,0.14778962728965223
12,-0.5313675712634521,-1.789459082355622,0.08889299779462982,-0.12409350701035471,0.08230555085356224
13,-0.5671567529105646,-1.7460185769455354,0.08641112765442273,-0.1628968496842026,0.02980352457035752
14,-0.6020771244494753,-1.7306747862369767,0.08315319066073867,-0.16045339401937156,0.14243142443085594
15,-0.6366906201742147,-1.6519443828888587,0.07994412278035125,-0.25372207617021486,0.03979118965490225
16,-0.6697295078319919,-1.6297538120561774,0.07486968125694696,-0.2634230784292644,0.005180230130121062
17,-0.7023245840731155,-1.6338952371513713,0.06960121968836167,-0.23523721588037608,0.19898570748879132
18,-0.7350024888161429,-1.7528892603813266,0.06489647537075414,-0.036732100052735445,0.10449273764319511
19,-0.7700602740237694,-1.6957323196305276,0.06416183336969944,-0.10322086079142971,0.18759941758594934
20,-0.80397492041638,-1.8042514666073415,0.06209741615387084,0.07807355462906877,0.09491099472524353
21,-0.8400599497485268,-1.7537316152745377,0.06365888724645222,0.020684746877566898,0.09654237133792315
22,-0.8751345820540176,-1.8083616679419203,0.06407258218400355,0.12116691726560642,0.1857215686610141
23,-0.911301815412856,-1.7088049133660699,0.06649592052931567,-0.009037334007844691,0.03450042469231868
24,-0.9454779136801774,-1.7294417202340957,0.06631517384915878,0.041384860636720346,0.28798317596796397
25,-0.9800667480848593,-1.567808727278477,0.06714287106189318,-0.18104933963490713,0.10687431948179031
26,-1.0114229226304288,-1.502629289263361,0.06352188426919503,-0.25887302411634816,0.17850360763662032
27,-1.041475508415696,-1.3885694247189813,0.05834442378686806,-0.41095488358424914,0.14536596759912215
28,-1.0692468969100755,-1.490149857794369,0.05012532611518308,-0.2416999702986639,0.007909895659101896
29,-1.0990498940659628,-1.4960043902108338,0.0452913267092098,-0.21819852623070246,0.012619520583385902
30,-1.1289699818701795,-1.4884764838859428,0.04092735618459575,-0.21616770806676142,0.05879714291814165
31,-1.1587395115478984,-1.5273417243159273,0.03660400202326052,-0.14588938268863358,0.023780898392245935
32,-1.189286346034217,-1.5127421445036333,0.03368621436948785,-0.1570149094765877,0.161760695666755
33,-1.2195411889242895,-1.4093982916978005,0.030545916179956095,-0.30204087000232527,0.15896017744596908
34,-1.2477291547582456,-1.5187997506604576,0.024505098779909588,-0.12903613074994227,0.1979231435570805
35,-1.2781051497714548,-1.3925080811005228,0.021924376164910744,-0.31121298132525654,0.005053285621303934
36,-1.3059553113934652,-1.396325003901072,0.015700116538405612,-0.2990437228882965,0.2576330318773719
37,-1.3338818114714865,-1.574817974173862,0.009719242080639682,-0.02672162020470531,0.22501103851731274
38,-1.3653781709549637,-1.4356699645030957,0.009184809676545575,-0.23257636428078765,0.09149786152675973
39,-1.3940915702450256,-1.497523712114471,0.004533282390929822,-0.13709936027859293,0.053736632826643024
40,-1.424042044487315,-1.462725324102571,0.0017912951853579634,-0.1879636254922569,0.1503407346348434
41,-1.4532965509693665,-1.5624430116728945,-0.0019679773244871746,-0.037860693609837515,0.11661406204915925
42,-1.4845454112028245,-1.6351499940473397,-0.002725191196683925,0.07062098379992075,0.012453540930576731
43,-1.5172484110837712,-1.6276659262268445,-0.0013127715206855098,0.05859371853530171,0.04123143677497407
44,-1.549801729608308,-1.6524013949967127,-0.00014089714997947552,0.09531093500262779,0.021773651880731985
45,-1.5828497575082423,-1.6395099961845585,0.0017653215500730802,0.07593241321437988,0.07616766324971305
46,-1.6156399574319336,-1.5941152312434528,0.003283969814360678,0.008359376168676047,0.06305623761971023
47,-1.6475222620568026,-1.555562295584465,0.003451157337734199,-0.048504230100659684,0.017952266208305093
48,-1.678633507968492,-1.5668550492818771,0.0024810727357210054,-0.030550562187936534,0.13243216750337006
49,-1.7099706089541296,-1.6492770972792108,0.0018700614919622746,0.0938115639187888,0.027820702889572984
50,-1.7429561508997138,-1.6658035530795612,0.0037462927703380503,0.11915100203113836,0.011391976584282208
51,-1.776272221961305,-1.65916354290388,0.006129312810960817,0.1102924641586483,0.020823214216370182
52,-1.8094554928193827,-1.6715327667524975,0.008335162094133784,0.13064795809626867,0.019890371188814315
53,-1.8428861481544325,-1.6600015801193924,0.010948121256059158,0.11580228827001526,0.08621075137761104
54,-1.8760861797568205,-1.609330265468549,0.013264167021459463,0.0430185547468193,0.01055486632075752
55,-1.9082727850661914,-1.6159267265057387,0.014124538116395849,0.05681192664396939,0.11313083520547111
56,-1.940591319596306,-1.5477185791590333,0.015260776649275236,-0.04133761263849281,0.014839949485117175
57,-1.9715456911794866,-1.5572802903642429,0.01443402439650538,-0.022510221741899986,0.0043199505830600095
58,-2.0026912969867716,-1.5547826983922934,0.013983819961667381,-0.02201276362206992,0.06491836278315775
59,-2.0337869509546174,-1.5956920196475075,0.013543564689225983,0.04345632766014675,0.007461784393411704
60,-2.0657007913475676,-1.5913184581374031,0.014412691242428917,0.04087827335197047,0.08319431334140007
61,-2.0975271605103156,-1.64258893635513,0.015230256709468327,0.12201318769743194,0.016985240006666926
62,-2.1303789392374184,-1.6326847781855518,0.017670520463416967,0.11163619580784673,0.019096583101019943
63,-2.1630326348011293,-1.644384386112047,0.0199032443795739,0.13437773055012847,0.07001930780584917
64,-2.1959203225233703,-1.602973447260266,0.02259079899057647,0.07812479275348572,0.029280427741221655
65,-2.2279797914685755,-1.5854374857449087,0.024153294845646184,0.05846869221974329,0.13599010234619127
66,-2.2596885411834737,-1.6696029766218603,0.025322668690041048,0.1917804831389806,0.013026391302943745
67,-2.293080600715911,-1.6623136882644338,0.02915827835282066,0.18829412500549703,0.052997053810587585
68,-2.3263268744812,-1.631467734942449,0.0329241608529306,0.15061618182325093,0.06288051896946291
69,-2.3589562291800488,-1.6696964199710929,0.03593648448939562,0.2176060868274174,0.0906565991782592
70,-2.392350157579471,-1.6169282609142668,0.04028860622594397,0.14906800508791002,0.1523159305787685
71,-2.424688722797756,-1.5252258235019416,0.04326996632770217,0.023467616596364732,0.07215904219791025
72,-2.455193239267795,-1.5720279329717868,0.04373931865962947,0.1063224715034307,0.08932428878050178
73,-2.4866337979272304,-1.5170556748793738,0.045865768089698083,0.03679820832630107,0.100737462339998
74,-2.5169749114248177,-1.4528672360250365,0.046601732256224104,-0.04590338581830275,0.08305507025658662
75,-2.5460322561453186,-1.5092176809634459,0.045683664539858046,0.05222646582495416,0.07632513208069057
76,-2.5762166097645873,-1.4604624450473296,0.04672819385635713,-0.007403761169860093,0.029209280989816653
77,-2.605425858665534,-1.4806361231178624,0.04658011863295993,0.03655681462760988,0.012344094134537307
78,-2.6350385811278914,-1.4731615022838307,0.04731125492551213,0.03904664770188792,0.028030296137153642
79,-2.664501811173568,-1.4552562696535107,0.048092187879549886,0.02612317230748162,0.10884674650714106
80,-2.693606936566638,-1.5289632480089357,0.04861465132569952,0.15068946269675393,0.15266259610460198
81,-2.7241862015268166,-1.431825427028198,0.051628440579634595,0.019441956114946285,0.07038536914344405
82,-2.7528227100673806,-1.3845853298374653,0.05201727970193352,-0.03615175265857949,0.2646775199351586
83,-2.78051441666413,-1.5715698483973772,0.05129424464876193,0.259231838570864,0.25375662783826375
84,-2.8119458136320774,-1.4136141696880025,0.056478881420179206,0.03768384574871869,0.11916072068941747
85,-2.8402180970258373,-1.496741692173255,0.05723255833515358,0.1787722729223559,0.1205864981118021
86,-2.8701529308693026,-1.4185483411409987,0.0608080037936007,0.07849147721401942,0.08897123561426845
87,-2.8985238976921224,-1.4807452533102579,0.062377833337881085,0.18948095128380177,0.1369696062691782
88,-2.9281388027583275,-1.390889668262747,0.06616745236355712,0.07328690179916168,0.11437927479911077
89,-2.9559565961235825,-1.3114398375499423,0.06763319039954035,-0.026188018766808333,0.056054003691360633
90,-2.982185392874581,-1.270758279972674,0.06710943002420419,-0.0672018403972941,0.12672738193910674
91,-3.0076005584740346,-1.3687459685567356,0.06576539321625831,0.0991642041526451,0.07962859099343456
92,-3.0349754778451694,-1.3127590018659003,0.06774867729931121,0.03468639105098646,0.026415282567227725
93,-3.0612306578824873,-1.3333753843879201,0.06844240512033094,0.08544289953811068,0.12263955870026257
94,-3.0878981655702455,-1.2443889187791877,0.07015126311109315,-0.02761792628791508,0.03217858401215959
95,-3.112785943945829,-1.2201974622302856,0.06959890458533485,-0.043208300154400706,0.21498095987098342
96,-3.1371898931904347,-1.3927438243362447,0.06873473858224684,0.23543019630618173,0.03331862914476794
97,-3.1650447696771598,-1.3702107554210663,0.07344334250837048,0.2219025089089534,0.16862428739198912
98,-3.1924489847855813,-1.2503532298795466,0.07788139268654955,0.0641738162120333,0.03311916774258902
99,-3.217456049383172,-1.2773554262024407,0.07916486901079021,0.12742832551277256,0.20385789223157727
100,-3.243003157907221,-1.1221476707549924,0.08171343552104567,-0.08140399579790439,0.06691818378047623
101,-3.265446111322321,-1.1812739497458598,0.08008535560508757,0.0309865181830154,0.08939514113517452
102,-3.289071590317238,-1.1085326077298645,0.08070508596874788,-0.05425584368046475,0.07916361076092508
103,-3.3112422424718355,-1.0402002461269453,0.07961996909513859,-0.1327192183353804,0.09572891367455781
104,-3.3320462473943744,-1.1305626652167817,0.07696558472843099,0.025778555266213893,0.0633401144295313
105,-3.35465750069871,-1.0769698723937564,0.07748115583375527,-0.031767102321212916,0.039800260554644314
106,-3.3761968981465853,-1.0420855547216235,0.076845813787331,-0.06117991629525065,0.10804165804796427
107,-3.397038609241018,-0.9423449001359839,0.07562221546142599,-0.1877789284005963,0.1247941149102143
108,-3.4158855072437375,-1.0714115446238535,0.07186663689341406,0.027479476895891336,0.061849178816993
109,-3.4373137381362144,-1.016075087817045,0.07241622643133189,-0.034200340464566416,0.030431630864107773
110,-3.4576352398925554,-1.046273531442318,0.07173221962204056,0.03225037117807516,0.09565830027356731
111,-3.4785607105214016,-0.9580093470561706,0.07237722704560207,-0.07873423678925912,0.09457496081663642
112,-3.497720897462525,-0.863124648367068,0.07080254230981689,-0.1994283285524886,0.18337834385164153
113,-3.514983390429866,-1.0691860147020158,0.06681397573876711,0.12968786539519433,0.038518848694928685
114,-3.5363671107239063,-1.0348094481287513,0.069407733046671,0.09786676539357174,0.04636634111195628
115,-3.5570632996864813,-0.9919140495694195,0.07136506835454244,0.05406808311244365,0.10284883194586267
116,-3.5769015806778697,-0.8915622901451057,0.07244643001679131,-0.07511287700899141,0.034699386622564714
117,-3.594732826480772,-0.9304083675847571,0.07094417247661149,0.004284017567902712,0.1151064119418009
118,-3.613340993832467,-0.8107426444265019,0.07102985282796954,-0.15392294681425284,0.059350828601479014
119,-3.629555846720997,-0.8825402022470904,0.06795139389168449,-0.02563295142170885,0.06370274602667177
120,-3.647206650765939,-0.8132070944873265,0.06743873486325032,-0.1094302626350425,0.03566798664753937
121,-3.6634707926556858,-0.8566876354635079,0.06525012961054946,-0.02454574387267479,0.015829525016988952
122,-3.680604545364956,-0.8396225121337207,0.06475921473309597,-0.030919027679752388,0.07370536170012343
123,-3.6973969956076305,-0.7550744677270409,0.06414083417950092,-0.1384493525303322,0.009573967790971038
124,-3.7124984849621714,-0.7437258359631904,0.06137184712889428,-0.13659281771186954,0.0013953622966035488
125,-3.727373001681435,-0.7464172231196318,0.05863999077465688,-0.11453133894889095,0.011281926787518902
126,-3.7423013461438277,-0.7326148472135549,0.056349363995679067,-0.1179690383546312,0.05840461221273019
127,-3.756953643088099,-0.8106144772976898,0.05398998322858644,0.015402651786430174,0.08212217504174965
128,-3.7731659326340528,-0.7124852443242798,0.05429803626431504,-0.11571137600797386,0.08757587084245445
129,-3.7874156375205383,-0.8322764727539672,0.05198380874415556,0.07966642806147463,0.10404606870819948
130,-3.8040611669756177,-0.7105474323978725,0.053577137305385054,-0.0874041178990786,0.015702745128715126
131,-3.818272115623575,-0.732750053535479,0.05182905494740348,-0.038403830829662276,0.0408486697964225
132,-3.8329271166942847,-0.6792441633727578,0.05106097833081023,-0.10332397151263031,0.0944365247548912
133,-3.8465119999617396,-0.8146593269794014,0.048994498900557626,0.11453944346297162,0.14960380063967577
134,-3.8628051865013275,-0.6350801705372424,0.051285287769817056,-0.14010743079899007,0.028035230243869034
135,-3.8755067899120723,-0.5931808243634964,0.04848313915383726,-0.18780255014955727,0.07641904418624852
136,-3.8873704063993424,-0.7177578564958711,0.04472708815084611,0.013091875880257203,0.05394370499572049
137,-3.90172556352926,-0.64502552125498,0.04498892566845126,-0.08275213874036476,0.07374226304858186
138,-3.9146260739543597,-0.7565431887225592,0.04333388289364396,0.09757738967416406,0.1762151111604547
139,-3.929756937728811,-0.528615617323595,0.045285430687127246,-0.2312568368703531,0.06758182133536397
140,-3.940329250075283,-0.651542285761087,0.040660293949720185,-0.03374650621095018,0.012497236779301259
141,-3.953360095790505,-0.6707916574334523,0.039985363825501184,0.007054519245408168,0.009373373010880183
142,-3.9667759289391737,-0.6577267272793773,0.04012645421040935,-0.0007746469715979917,0.030800966049786396
143,-3.979930463484761,-0.6126220915678716,0.04011096127097739,-0.05658312756627212,0.03655201728547608
144,-3.9921829053161186,-0.6711561698723308,0.038979298719651945,0.04293682892176652,0.055225319557148767
145,-4.005606028713565,-0.5912125678314429,0.03983803529808728,-0.06543047475836526,0.0011871389980245793
146,-4.017430280070194,-0.5898340926240172,0.03852942580291997,-0.055787262421459,0.05083519707538303
147,-4.029226961922674,-0.6741006640163659,0.03741368055449079,0.0818436336396743,0.00469920886320031
148,-4.042708975203002,-0.6677983649513585,0.039050553227284276,0.08339385674210358,0.05504391876456521
149,-4.056064942502029,-0.7492227636409226,0.04071843036212635,0.21691528569232416,0.037855538856267607
150,-4.071049397774848,-0.6998593878812917,0.04505673607597283,0.15489950735376773,0.11402510667200151
151,-4.085046585532474,-0.5399618297948201,0.048154726223048186,-0.07146121497448374,0.006258534538275478
152,-4.0958458221283705,-0.5518895652603326,0.04672550192355851,-0.03943833342445478,0.02297056268598347
153,-4.106883613433577,-0.5120898141899516,0.045936735255069416,-0.08534050220835325,0.030726974373721315
154,-4.117125409717375,-0.5708382413361247,0.044229925210902354,0.016189828235767298,0.035081568396092416
155,-4.128542174544098,-0.5114456014239034,0.0445537217756177,-0.0598126454494006,0.03225076933045252
156,-4.138771086572576,-0.5732696665726179,0.04335746886662969,0.04592588637885839,0.05742609384233152
157,-4.150236479904028,-0.47581749593055406,0.044275986594206854,-0.08737189063220072,0.0899953057149455
158,-4.159752829822639,-0.6594241744025745,0.04252854878156284,0.20078110679278796,0.19424250249400954
159,-4.172941313310691,-0.36866173480136233,0.0465441709174186,-0.22246856586887678,0.02240893808508338
160,-4.180314548006718,-0.4270371075479127,0.04209479960004107,-0.12132129013015423,0.0033245270241927054
161,-4.188855290157677,-0.4201419157368513,0.039668373797437984,-0.1192826991774875,0.024627569710641735
162,-4.197258128472414,-0.4771626102447504,0.037282719813888233,-0.022159500064105886,0.03406329515257278
163,-4.206801380677309,-0.40820436744481153,0.03683952981260612,-0.1145664030872417,0.020991736954475954
164,-4.214965468026205,-0.4582655248839069,0.034548201750861283,-0.028697244489011203,0.06160760702524313
165,-4.224130778523883,-0.5895346121402287,0.03397425686108106,0.1782440390103179,0.1237086441978238
166,-4.235921470766688,-0.38246392317383887,0.03753913764128742,-0.12219624305058305,0.003689740200798339
167,-4.243570749230165,-0.3922775733071048,0.03509521278027576,-0.0964522240169517,0.009384821203035609
168,-4.251416300696307,-0.41586062747555474,0.033166168299936724,-0.0507835508829486,0.017108081991220603
169,-4.259733513245818,-0.4562467502872578,0.03215049728227775,0.019511383927892534,0.028002617377494623
170,-4.268858448251563,-0.5166985559836216,0.0325407249608356,0.1195928496918755,0.07459969272225009
171,-4.279192419371236,-0.3748224549008374,0.03493258195467311,-0.08354335273313329,0.0423569470732832
172,-4.286688868469253,-0.484457021871679,0.033261714900010446,0.09107625930393237,0.0354266609655969
173,-4.296378008906687,-0.41298170997674,0.035083240086089096,-0.0063002657806293105,0.028301577784035387
174,-4.304637643106221,-0.34667831464780585,0.03495723477047651,-0.09538180189450526,0.01209491325772413
175,-4.311571209399177,-0.38079279116248294,0.03304959873258641,-0.03396601610084634,0.02523125598872825
176,-4.319187065222427,-0.31688868216570687,0.032370278410569484,-0.12005502040953803,0.03255890352914021
177,-4.325524838865741,-0.4158879520112463,0.02996917800237872,0.03788128990585285,0.0009344627144760393
178,-4.333842597905966,-0.4185184982336017,0.030726803800495778,0.05063495686546378,0.0297450972252473
179,-4.342212967870639,-0.34924146524384947,0.03173950293780505,-0.04419928236854638,0.0029419835057449984
180,-4.349197797175516,-0.3415253807363503,0.030855517290434124,-0.04643773255003246,0.06445261560133596
181,-4.356028304790243,-0.1589937679165409,0.029926762639433474,-0.3110347432225882,0.027551655310948314
182,-4.359208180148574,-0.3146698439717187,0.02370606777498171,-0.0688280353140257,0.008027693766325816
183,-4.365501577028009,-0.3396528530817647,0.022329507068701196,-0.02439511992292926,0.01963986453875364
184,-4.372294634089644,-0.396200402750139,0.021841604670242612,0.06696938875316649,0.03321132962863761
185,-4.380218642144647,-0.3141032128074916,0.023180992445305942,-0.049726102407752035,0.019980738120135164
186,-4.386500706400796,-0.3760502707749461,0.022186470397150902,0.049984121258668676,0.034743840995709076
187,-4.394021711816295,-0.2856857608343668,0.023186152822324276,-0.0790069971086937,0.011241993986051873
188,-4.399735427032983,-0.24810485940552274,0.0216060128801504,-0.12854707920673636,0.027708022919634825
189,-4.404697524221094,-0.35485901932282093,0.019035071296015674,0.0378984594857843,0.007028253646318733
190,-4.4117947046075505,-0.3357154886816374,0.01979304048573136,0.014784338641667678,0.009150268514742285
191,-4.418509014381184,-0.36264306468165347,0.020088727258564712,0.06098656490367989,0.04295852772645802
192,-4.425761875674817,-0.24647411672597153,0.02130845855663831,-0.10732600903971524,0.02030187301212037
