,X,v,theta,theta_dot,energy
0,0.0,-2.0,0.5235987755982988,0.0,1.1956698021154908
1,-0.04,-1.4333225404526218,0.5235987755982988,-0.5891356135800875,0.8739552511617387
2,-0.06866645080905244,-0.8644044531062471,0.511816063326697,-1.1811818880517095,0.218813685514034
3,-0.08595453987117738,-0.6396086002042819,0.48819242556566284,-1.3311766274041925,0.03561081298226835
4,-0.09874671187526302,-0.5953481973750782,0.461568893017579,-1.2519167312778927,0.010986885110911322
5,-0.11065367582276459,-0.583973866398415,0.4365305583920211,-1.1362589345996545,0.0093552728477322
6,-0.12233315315073288,-0.6031493978562387,0.413805379700028,-0.9858903548559131,0.11899276114841359
7,-0.13439614110785766,-0.42993188950738864,0.3940875726029097,-1.105570236750695,0.04409153405339926
8,-0.14299477889800544,-0.5238129402737872,0.37197616786789583,-0.86265705284103,0.04225139194374291
9,-0.1534710377034812,-0.4555174877829026,0.35472302681107526,-0.8512378310497491,0.03079645089799728
10,-0.16258138745913925,-0.39936035817725535,0.33769827019008025,-0.8281140299595685,0.011547023397392768
11,-0.17056859462268437,-0.3778955058637887,0.3211359895908889,-0.7610858227885563,0.036302266736152465
12,-0.17812650473996014,-0.29639309719235885,0.30591427313511776,-0.7842899851215898,0.02432408827945435
13,-0.1840543666838073,-0.3716408237715819,0.290228473432686,-0.5881162498695774,0.013650526517476098
14,-0.19148718315923896,-0.34213329956047234,0.27846614843529444,-0.5463921452312847,0.05639366888820312
15,-0.1983298491504484,-0.1963468860153936,0.26753830553066876,-0.6758327570562089,0.0019718223295456193
16,-0.20225678687075627,-0.20833522193157017,0.2540216503895446,-0.5807687004923474,0.005152941955816313
17,-0.20642349130938767,-0.1903331059429769,0.24240627637969767,-0.53302355120626,0.005455951216831705
18,-0.21023015342824722,-0.1688123683503521,0.23174580535557246,-0.4937893232356576,0.007840922335940853
19,-0.21360640079525425,-0.21191459772764487,0.2218700188908593,-0.36333932289256654,0.01583176961919146
20,-0.21784469274980714,-0.14746054987261958,0.21460323243300797,-0.3929545833661668,0.020693009824790137
21,-0.22079390374725952,-0.028400272692461537,0.20674414076568462,-0.5048381326146485,0.0029529179469618655
22,-0.22136190920110874,0.02522313250758554,0.19664737811339164,-0.5232096361549328,0.0001223988673835934
23,-0.22085744655095702,-0.04096344958294136,0.186183185390293,-0.3684007371730133,0.004870900558240371
24,-0.22167671554261584,0.03899647476646098,0.17881517064683272,-0.4318456492684889,0.0010098626501128484
25,-0.22089678604728663,0.08650877552014535,0.17017825766146294,-0.4496857878383976,0.0016332210214135563
26,-0.21916661053688372,0.06018825605718255,0.161184541904695,-0.3609840624424928,0.0034278210865288246
27,-0.21796284541574007,0.13383198724718495,0.15396486065584514,-0.4228344630349027,0.00938601410620184
28,-0.21528620567079637,0.21129864260689535,0.14550817139514707,-0.49257285154649666,0.0039823077135382745
29,-0.21106023281865846,0.18876777885089394,0.13565671436421714,-0.41650509990488915,0.008166546686583299
30,-0.20728487724164057,0.2336758858708478,0.12732661236611936,-0.4434875258918051,0.007461515315143427
31,-0.20261135952422363,0.1978670183153684,0.11845686184828326,-0.35287607959696676,0.0025624817824134484
32,-0.19865401915791625,0.20992727508439205,0.11139934025634393,-0.33609476350235407,0.0074874140700812095
33,-0.19445547365622842,0.24583323568472734,0.10467744498629684,-0.3569361519190791,0.01691467352263624
34,-0.1895388089425339,0.3161444050069517,0.09753872194791527,-0.4311066171965999,0.03345984595723066
35,-0.18321592084239485,0.20480202222756078,0.08891658960398327,-0.23625594478575657,0.004154771612071589
36,-0.17911988039784363,0.22440993806811343,0.08419147070826814,-0.23944458313233902,0.027963814633527106
37,-0.17463168163648135,0.3508935437460447,0.07940257904562137,-0.4037749213582174,0.033419302768979094
38,-0.16761381076156046,0.2517872889131461,0.07132708061845702,-0.2322640886788152,0.0008622447498560015
39,-0.16257806498329752,0.25425748027192,0.06668179884488072,-0.21500756919974043,0.014417190564422996
40,-0.15749291537785912,0.31081532673837475,0.06238164746088591,-0.280065873345107,0.02323077646503428
41,-0.15127660884309163,0.3859332111286454,0.05678032999398377,-0.37419522016764883,0.046059836356764625
42,-0.1435579446205187,0.2633612862465264,0.04929642559063079,-0.17394918416165467,0.024947855406879785
43,-0.1382907188955882,0.3579154559508875,0.0458174419073977,-0.3011208591054094,0.026343395333181696
44,-0.13113240977657045,0.28261529832290744,0.03979502472528951,-0.17482354112718126,0.017379454181260565
45,-0.1254801038101123,0.34376894348956333,0.03629855390274588,-0.25478473478280783,0.01061802833856215
46,-0.11860472494032102,0.3120704770824297,0.031202859207089727,-0.19659892429449186,0.009037157440997612
47,-0.11236331539867243,0.340707311788674,0.02727088072119989,-0.2303611149629376,0.0011233603662630734
48,-0.10554916916289896,0.34363633889372897,0.022663658421941138,-0.22673637680022973,0.006616026737231465
49,-0.09867644238502438,0.32394925647397044,0.018128930885936544,-0.19055079173958134,0.0382757941071253
50,-0.09219745725554497,0.20525468961784432,0.014317915051144917,-0.0072085843728789956,0.01687939671369104
51,-0.08809236346318808,0.12469172695951604,0.014173743363687336,0.1178327963092573,0.022297209480115748
52,-0.08559852892399776,0.2917592221646881,0.01653039928987248,-0.1285763336254081,0.009498553517724363
53,-0.079763344480704,0.32393307626988177,0.01395887261736432,-0.17197080514389113,0.0022379649904798247
54,-0.07328468295530637,0.31682653718790194,0.010519456514486498,-0.15720825976029018,0.0086965981873436
55,-0.06694815221154833,0.2892786581138892,0.007375291319280695,-0.11279606426699673,0.02063955044914671
56,-0.06116257904927055,0.3600367793333928,0.00511937003394076,-0.2167620434572907,0.012755448569893501
57,-0.053961843462602695,0.3244270901600641,0.0007841291647949456,-0.16184312142272606,0.013592763933854075
58,-0.04747330165940141,0.2825916361913519,-0.0024527332636595754,-0.09885942581099616,0.0212361432752232
59,-0.041821468935574375,0.3571263365573925,-0.0044299217798794985,-0.21138224292172342,0.025981658736125658
60,-0.03467894220442652,0.284249843566087,-0.008657566638313966,-0.10337096878408501,0.005987619187823816
61,-0.02899394533310478,0.30527005796906753,-0.010724986013995666,-0.13744540153755466,0.03160457965413814
62,-0.022888544173723428,0.20230959644355928,-0.01347389404474676,0.013833323100578943,0.005727565899822373
63,-0.018842352244852242,0.23003725173524736,-0.013197227582735182,-0.03171558950403234,0.0005629294937545136
64,-0.014241607210147295,0.22782402061100812,-0.013831539372815829,-0.03227590419990946,0.009720153866453947
65,-0.009685126797927133,0.2699160819832768,-0.014477057456814019,-0.09947429975000081,0.02707027745194596
66,-0.004286805158261596,0.17061293178069958,-0.016466543451814034,0.04520871025489649,0.006265843733559364
67,-0.0008745465226476044,0.13544631993369988,-0.015562369246716104,0.09311053169468805,0.0073586833463932175
68,0.001834379876026393,0.0842720648794484,-0.013700158612822342,0.16528746726692328,0.005763942848890507
69,0.003519821173615361,0.14573423378822936,-0.010394409267483876,0.06907514521194344,0.0015654440392959827
70,0.006434505849379948,0.15614193145599067,-0.009012906363245006,0.05040854077223139,0.004797237950611435
71,0.009557344478499763,0.1858117219867625,-0.008004735547800379,0.0032559039808182644,0.010033939493895838
72,0.013273578918235013,0.23856782676599664,-0.007939617468184014,-0.07822908502826058,0.018072345183813246
73,0.018044935453554945,0.16365794799943822,-0.009504199168749224,0.03179796852860918,0.005066174979319159
74,0.02131809441354371,0.19373051296067864,-0.00886823979817704,-0.016103034080655422,0.011678742876503067
75,0.025192704672757284,0.25289350897885293,-0.009190300479790149,-0.10745126677118683,0.026533649292993983
76,0.030250574852334344,0.14864889761434194,-0.011339325815213885,0.046207136514204605,0.00924086055642488
77,0.033223552804621186,0.20861541320970695,-0.010415183084929794,-0.04707054440338011,0.0007239976321245174
78,0.037395861068815324,0.20534384810713024,-0.011356593972997396,-0.04522547137910328,0.031382728785706415
79,0.04150273803095793,0.05489786954433287,-0.01226110340057946,0.17709017724791304,0.005036723214275287
80,0.04260069542184459,0.13313619351735717,-0.0087192998556212,0.05613683854625898,0.024349562805779847
81,0.04526341929219173,0.3083362062508661,-0.007596563084696021,-0.20921663245102048,0.005194999446113581
82,0.05143014341720905,0.32540538501768995,-0.011780895733716431,-0.23705302990292557,0.032932363053280414
83,0.05793825111756285,0.22345794903125646,-0.01652195633177494,-0.08760599095421792,0.01627527617004376
84,0.06240741009818798,0.1513498329698042,-0.0182740761508593,0.015684186516270376,0.0006641623281617428
85,0.06543440675758407,0.1473507846273207,-0.017960392420533895,0.016309478098763035,0.012581149221551057
86,0.06838142245013049,0.0647273774980657,-0.017634202858558636,0.1349445286121895,0.001215367785450657
87,0.0696759700000918,0.04824703932816278,-0.014935312286314846,0.1544770054118868,0.0039496979278957805
88,0.07064091078665506,-0.021259326572020232,-0.01184577217807711,0.2543341076562781,0.0007911355350685163
89,0.07021572425521466,0.058486646809448,-0.0067590900249515475,0.1312409645190022,0.01040500590630294
90,0.07138545719140363,0.21608335111550353,-0.004134270734571503,-0.10713584940795243,0.02890431840787542
91,0.0757071242137137,0.08263178332595783,-0.006276987722730552,0.09182431941024466,0.0006343489785125032
92,0.07735975988023286,0.07559230714852516,-0.004440501334525658,0.10053790338554319,0.004245276308167562
93,0.07887160602320337,0.12732278804473973,-0.0024297432668147945,0.02163744395619145,0.0036959669129363426
94,0.08141806178409816,0.15546084946634903,-0.0019969943876909655,-0.02128386740585478,0.005456180687308015
95,0.08452727877342514,0.12103428622423648,-0.002422671735808061,0.02976875852809812,0.014482375983621794
96,0.08694796449790987,0.23651506684777737,-0.0018272965652460986,-0.14416416885420524,0.018489369342258633
97,0.09167826583486542,0.15810049285570954,-0.004710579942330203,-0.02707972912771034,0.00270214718460261
98,0.09484027569197961,0.1749733197803547,-0.0052521745248844095,-0.053773594095991195,0.013464617457600128
99,0.09833974208758671,0.09890967690012485,-0.006327646406804234,0.058776164335982206,0.012008352503012798
100,0.1003179356255892,0.21433102050140268,-0.00515212312008459,-0.1162127006809893,0.024747143080864797
101,0.10460455603561726,0.09891259844752243,-0.007476377133704375,0.05539791712663025,0.0006303896943065935
102,0.10658280800456771,0.10508316799280733,-0.006368418791171769,0.04394428709090134,0.004773592312652958
103,0.10868447136442386,0.0616824865538231,-0.005489533049353743,0.10717168664185042,0.005887548785568053
104,0.10991812109550032,0.1480662215804268,-0.003346099316516734,-0.024015878134912155,0.014771987022888622
105,0.11287944552710887,0.05005860506129743,-0.0038264168792149773,0.12201097228330388,0.004569394356257004
106,0.11388061762833482,0.13028567465044794,-0.0013861974335489,0.0005462850626470339,0.006482260846416118
107,0.11648633112134378,0.08177411648382402,-0.0013752717322959593,0.07290601048485341,0.005216461571159726
108,0.11812181345102025,0.14160518831619162,8.284847740110905e-05,-0.01724484215342434,0.006483672530379556
109,0.12095391721734408,0.09668513740960566,-0.00026204836566737775,0.050159591427538605,0.005698373196248193
110,0.1228876199655362,0.15286412512079953,0.0007411434628833944,-0.03418592946454596,0.01619258823102775
111,0.12594490246795217,0.04844781300810373,5.742487359247509e-05,0.1226563918462277,0.00560846370800489
112,0.12691385872811425,0.14973092723556178,0.0025105527105170294,-0.02925139633163787,0.006856148929712529
113,0.12990847727282548,0.19476812653552572,0.001925524783884272,-0.09606888066228945,0.021454515774261447
114,0.133803839803536,0.08480838634008088,4.1471706384828624e-06,0.0694365277987974,0.002156647706871025
115,0.1355000075303376,0.10872757124805672,0.001392877726614431,0.033558969705309874,0.00205888905877129
116,0.13767455895529876,0.12692635185511977,0.0020640571207206286,0.006670331194626126,0.007345921549904701
117,0.14021308599240115,0.183226044272851,0.0021974637446131513,-0.07717219517790012,0.014049278353824055
118,0.14387760687785817,0.10692732973080285,0.0006540198410551487,0.037921654130141216,0.0036736561026778384
119,0.14601615347247424,0.13990479229486819,0.001412452923657973,-0.011352247317011628,0.0002109680450758156
120,0.1488142493183716,0.13840792890411222,0.0011854079773177405,-0.008691693449105744,0.0006656545067916052
121,0.15158240789645383,0.14309642489946192,0.0010115741083356255,-0.015375922637241959,0.00506578334670339
122,0.15444433639444308,0.10837466117518649,0.0007040556555907864,0.03700409903868152,0.0034306368861369745
123,0.1566118296179468,0.07795329642742752,0.0014441376363644167,0.082843127196189,0.0057286063919762455
124,0.15817089554649535,0.14632417377495519,0.0031010001802881967,-0.01928850556529102,0.007730681936527069
125,0.16109737902199445,0.19813433735174785,0.002715230068982376,-0.09609168467619285,0.011096489026169176
126,0.1650600657690294,0.14222490280953715,0.0007933963754585191,-0.011429565346439005,0.0017392184555434361
127,0.16790456382522015,0.13023939599429832,0.000564805068529739,0.0067819477278745835,0.002881547092430079
128,0.17050935174510612,0.1517656939492467,0.0007004440230872306,-0.025341441372985267,0.0008122742177785533
129,0.17354466562409104,0.1570172024890933,0.0001936151956275253,-0.03301277172442804,0.003630781159861165
130,0.1766850096738729,0.1342372749884435,-0.0004666402388610355,0.001214041753244785,0.013353153682208624
131,0.1793697551736418,0.23125214752626516,-0.0004423594037961398,-0.14444544343476629,0.012687370395416368
132,0.18399479812416708,0.17616872763474953,-0.0033312682724914652,-0.06195037534208603,0.006263329765817321
133,0.18751817267686208,0.14096721998827283,-0.004570275779333186,-0.010127797915312937,0.0018960067082060758
134,0.19033751707662752,0.15419766906997548,-0.004772831737639445,-0.03131692067728714,0.003090203820403624
135,0.19342147045802704,0.13453222893849587,-0.005399170151185188,-0.003222303665695741,0.009428250946226102
136,0.19611211503679696,0.0661628709876286,-0.005463616224499103,0.09774289017362582,0.0038245490340504218
137,0.19743537245654952,0.01339473325614065,-0.0035087584210265863,0.1752876202051291,0.0008159706082531647
138,0.19770326712167233,0.05070998292669827,-3.006016924004141e-06,0.11828351739166448,0.005729749018948804
139,0.1987174667802063,0.15037748499573045,0.0023626643309092856,-0.031218619480184007,0.00916769492842791
140,0.2017250164801209,0.09029942207298204,0.0017382919413056054,0.0595928460460463,0.004175998098453138
141,0.20353100492158052,0.13407864297957023,0.002930148862226531,-0.005564828526087348,0.011285816983414399
142,0.2062125777811719,0.051761345740700626,0.002818852291704784,0.11877204979718828,0.003599937598439098
143,0.20724780469598592,-0.009722888714176564,0.00519429328764855,0.21182677654400056,3.201902790758047e-06
144,0.20705334692170238,0.023201850470067814,0.009430828818528561,0.16396744937453767,0.0013501550570721218
145,0.20751738393110375,0.06603665395959558,0.012710177806019315,0.10249072400419931,0.006693444308578635
146,0.20883811701029567,-0.026515842697711525,0.0147599922861033,0.2450449470085588,0.0019328594254463614
147,0.20830780015634143,0.09588698009087684,0.019660891226274478,0.06579999240133436,0.01347598176501125
148,0.21022553975815897,0.2285672585120742,0.020976891074301167,-0.12740203110309747,0.024034920149163017
149,0.21479688492840046,0.12301403197368146,0.01842885045223922,0.03705972873860003,0.004905447907936431
150,0.21725716556787408,0.1611279386521433,0.01917004502701122,-0.014683647943440514,0.008590210471590655
151,0.22047972434091695,0.10862552244984902,0.01887637206814241,0.06969115424228901,0.00022747002225326828
152,0.22265223478991392,0.10636989971936837,0.02027019515298819,0.07862330938852408,0.002445377191044886
153,0.2247796327843013,0.08438030267628703,0.02184266134075867,0.11755995813784098,0.004533108782783241
154,0.22646723883782705,0.03477781173499106,0.02419386050351549,0.1983671779839672,0.00018077953874809965
155,0.22716279507252687,0.03040457889389108,0.028161204063194833,0.21203740854355485,0.004389790004767343
156,0.2277708866504047,0.13696182292833445,0.03240195223406593,0.060543217197418425,0.014482928109502633
157,0.2305101231089714,0.23762401167997454,0.0336128165780143,-0.08084630281506944,0.0027163765708622858
158,0.2352626033425709,0.24846931424158467,0.03199589052171291,-0.08722476024970034,0.007725663171485629
159,0.2402319896274026,0.2788350328950262,0.0302513953167189,-0.12334483845424929,0.01274670259747733
160,0.24580869028530314,0.3239128090215516,0.027784498547633915,-0.18203801166645164,0.007210758838405185
161,0.2522869464657342,0.3012291141800002,0.024143738314304882,-0.13985801043937549,0.01441483547770874
162,0.25831152874933416,0.34857391886015987,0.02134657810551737,-0.20375695032150898,0.018131038353993156
163,0.26528300712653735,0.40039812978173167,0.01727143909908719,-0.2752001387297095,0.03562914212361152
164,0.273290969722172,0.31054040882392386,0.011767436324493,-0.13535610974243137,0.01676166304716746
165,0.27950177789865044,0.2566487793842718,0.009060314129644371,-0.05106471596612182,0.023918431939912884
166,0.2846347534863359,0.16476751632357411,0.008039019810321936,0.0894152177230196,0.002212672187285262
167,0.28793010381280737,0.15186621970468178,0.009827324164782329,0.11112998370430724,0.003018023370147236
168,0.290967428206901,0.17048938797548177,0.012049923838868474,0.08608576700419564,0.013404853994682699
169,0.29437721596641064,0.24530299839590058,0.013771639178952386,-0.022583909609493608,0.00774044884695588
170,0.29928327593432863,0.2760194763972864,0.013319960986762514,-0.06460552352361668,0.009063716535473226
171,0.30480366546227433,0.24344814353120714,0.01202785051629018,-0.011836905565963958,0.011136729353038288
172,0.3096726283328985,0.2880040858124147,0.011791112404970902,-0.07512988185256628,0.000581836765941437
173,0.3154327100491468,0.289829659459606,0.010288514767919575,-0.07440154524714765,0.006279613020845052
174,0.3212293032383389,0.26829467776500715,0.008800483862976622,-0.03907601237829742,0.016881400115636293
175,0.3265951967936391,0.2063732964989692,0.008018963615410674,0.05638977161285517,0.00803809943517351
176,0.33072266272361844,0.16872531102958527,0.009146759047667777,0.11521748418208,0.0171452846450737
177,0.33409716894421015,0.26474736650366587,0.011451108731309377,-0.026120464273585275,0.008638468469052125
178,0.33939211627428345,0.2965595210941736,0.010928699445837672,-0.07046901520691491,0.027034797023732564
179,0.3453233066961669,0.2064945807999532,0.009519319141699375,0.06783330121418159,0.02039431842394302
180,0.349453198312166,0.30129549586195875,0.010875985165983006,-0.07156299090587244,0.010310724533787882
181,0.35547910822940515,0.267388874786995,0.009444725347865557,-0.01750859069824926,0.015487541914196478
182,0.36082688572514504,0.21057642166891347,0.009094553533900571,0.07048299610327333,0.01748501330574639
183,0.3650384141585233,0.1306516640492581,0.010504213455966038,0.19303893646061543,0.006955480916207564
184,0.36765144743950845,0.08183182746156142,0.014364992185178347,0.2693528333130698,0.00145257234991156
185,0.3692880839887397,0.0665628438350248,0.019752048851439743,0.2964771081483097,0.007631535989144379
186,0.3706193408654402,0.15930483452421598,0.02568159101440594,0.16319798301050106,0.0006205783899447294
187,0.3738054375559245,0.155306056443544,0.02894555067461596,0.176743730028938,0.023040191661038083
188,0.37691155868479537,0.29250318786118357,0.03248042527519472,-0.020456957072809895,0.02412092033160585
