,X,v,theta,theta_dot,energy
0,0.0,2.0,-0.17453292519943295,0.0,0.14771126823359315
1,0.04,2.0743427857373815,-0.17453292519943295,-0.1608725918961257,0.07658878666645766
2,0.08148685571474763,2.11285283698664,-0.17775037703735547,-0.2688126516889546,0.009665767400636358
3,0.12374391245448044,2.110852087723619,-0.18312663007113456,-0.3178426720511179,0.30855718327393433
4,0.16596095420895282,1.9701664934172864,-0.1894834835121569,-0.1638816735684244,0.016562760750828086
5,0.20536428407729856,1.981018576667813,-0.19276111698352538,-0.2352438315520182,0.140559496636841
6,0.24498465561065483,1.9142928339525054,-0.19746599361456574,-0.19333041805551068,0.05623192296644363
7,0.28327051228970496,1.8883298514217604,-0.20133260197567596,-0.21282120665675575,0.19614436134641794
8,0.32103710931814017,1.7895705856252395,-0.20558902610881108,-0.12646727806255198,0.18900971749129775
9,0.35682852103064494,1.6893727243658174,-0.2081183716700621,-0.039353882303985205,0.05798122584753874
10,0.3906159755179613,1.6588482648757223,-0.20890544931614183,-0.05530126139756834,0.2984348509643932
11,0.42379294081547575,1.486522109287423,-0.2100114745440932,0.13659558238283823,0.15478019858220415
12,0.4535233830012242,1.3885844486579701,-0.20727956289643643,0.21898381073907996,0.21529024919014786
13,0.4812950719743836,1.2417109912612394,-0.20289988668165482,0.37407337716284794,0.09877194477757753
14,0.5061292917996084,1.1681556613695632,-0.19541841913839786,0.42289892976858645,0.08178633121819844
15,0.5294924050269997,1.1038114827062084,-0.18696044054302613,0.46049011606328477,0.03815549089931648
16,0.5515686346811238,1.0733626870123938,-0.17775063822176043,0.4507206858559203,0.0862484234127821
17,0.5730358884213717,0.999046563235715,-0.16873622450464204,0.5084545397665354,0.018415962265360544
18,0.593016819686086,0.9838272390874073,-0.15856713370931133,0.4815859269068684,0.12106038880246024
19,0.6126933644678342,0.8687711526008093,-0.14893541517117395,0.6055812885498645,0.01351129655038487
20,0.6300687875198504,0.8855071050002632,-0.13682378940017667,0.5371299576152727,0.007591397675934402
21,0.6477789296198556,0.8792737438190406,-0.1260811902478712,0.5062918151796071,0.007660051213905284
22,0.6653644044962365,0.8727548486698933,-0.11595535394427907,0.47902280032097766,0.04694657523777125
23,0.6828195014696343,0.925534924694488,-0.10637489793785951,0.3663698069975253,0.10301043647187152
24,0.7013301999635241,1.0336203561274109,-0.099047501797909,0.17394281320016317,0.030358269267246194
25,0.7220026070860723,1.006610027996985,-0.09556864553390573,0.1851873553137712,0.01848882658584991
26,0.742134807646012,0.9902085540502328,-0.0918648984276303,0.18162287021385393,0.09205630998255471
27,0.7619389787270167,0.9016180286079494,-0.08823244102335323,0.28697802211719126,0.0429317955167432
28,0.7799713392991756,0.94863793579141,-0.08249288058100941,0.19081582615625642,0.11157963453314272
29,0.7989440980150038,1.0634714210345533,-0.07867656405788429,-0.00507405521347154,0.03558126431813763
30,0.8202135264356948,1.0319606714791412,-0.07877804516215371,0.01893880204661135,0.07153963191910925
31,0.8408527398652776,1.1006316143043022,-0.07839926912122148,-0.10688494641826268,0.032449905653630394
32,0.8628653721513637,1.130628052443538,-0.08053696804958674,-0.17476717625008392,0.13490674763044622
33,0.8854779332002345,1.0145997991997557,-0.08403231157458842,-0.024941208813703514,0.0026420827669681015
34,0.9057699291842296,1.018340682962269,-0.08453113575086249,-0.05520916796686358,0.0628830253205928
35,0.926136742843475,0.9591851633097177,-0.08563531911019977,0.00838471025845354,0.012521680257348976
36,0.9453204461096694,0.9476824000289692,-0.0854676249050307,0.00042960482970552834,0.059101539988310546
37,0.9642740941102488,1.009711057486448,-0.08545903280843659,-0.11737066330141364,0.07746819769681533
38,0.9844683152599777,0.9357210632106326,-0.08780644607446486,-0.03188508518028588,0.114791147761381
39,1.0031827365241903,0.8171709944686498,-0.08844414777807058,0.11947300932497387,0.02893620091801135
40,1.0195261564135634,0.8527306246701181,-0.0860546875915711,0.040373356016314935,0.01233900914209659
41,1.0365807689069657,0.8680371454180968,-0.0852472204712448,-0.007770327741277873,0.05891967550709831
42,1.0539415118153277,0.8030400443206411,-0.08540262702607036,0.0643389452267884,0.032579592608319996
43,1.0700023127017406,0.8436746109114878,-0.0841158481215346,-0.021468621957450806,0.05301592648104069
44,1.0868758049199703,0.7835289189463419,-0.08454522056068361,0.04373002775000477,0.039030690468175366
45,1.102546383298897,0.7362836875789531,-0.08367062000568352,0.08951805396013623,0.009345099335441996
46,1.1172720570504762,0.7251682191582599,-0.0818802589264808,0.08156245784492322,0.010653694081625259
47,1.1317754214336413,0.7120827842575952,-0.08024900976958234,0.07707894339323594,0.032175282896211195
48,1.1460170771187932,0.7570746463216027,-0.07870743090171763,-0.013759552884399548,0.011664566457304534
49,1.1611585700452252,0.74316103180555,-0.07898262195940561,-0.016069843003543895,0.035911761951860376
50,1.1760217906813362,0.697119390438683,-0.07930401881947649,0.029580560983908946,0.047965622320577876
51,1.1899641784901098,0.6312836702592268,-0.0787124075997983,0.1047328167297633,0.02446488938346245
52,1.2025898518952944,0.5948966547432877,-0.07661775126520304,0.1360267873506385,0.00640248623195698
53,1.21448778499016,0.6063770159971119,-0.07389721551819027,0.09635317872299719,0.00644230806969684
54,1.2266153253101024,0.5971449682180833,-0.07197015194373033,0.08845744342227056,0.008423393562927711
55,1.2385582246744642,0.5845075517592212,-0.07020100307528492,0.08622353276612355,0.019523396449696175
56,1.2502483757096485,0.5531515659518567,-0.06847653241996245,0.11251951620735984,0.05101067752281598
57,1.2613114070286857,0.46501326022794837,-0.06622614209581525,0.224300762296206,0.0318025555179113
58,1.2706116722332448,0.5312297279208587,-0.06174012684989113,0.10573753906737976,0.0020251005774754175
59,1.281236266791662,0.5357968135374525,-0.05962537606854353,0.08075989560549189,0.008037488079468916
60,1.2919522030624109,0.5221173722982303,-0.058010178156433695,0.08372311813006701,0.006723843127510629
61,1.3023945505083754,0.5354169563403888,-0.056335715793832356,0.046761870817800553,0.045886758021598285
62,1.313102889635183,0.4529597597683197,-0.055400478377476345,0.15369750502224924,0.002777189295208266
63,1.3221620848305495,0.45964082017218844,-0.05232652827703136,0.12741187951753616,0.014142568875522387
64,1.3313549012339934,0.49002822088539816,-0.04977829068668064,0.0665161863574529,0.02576709006523648
65,1.3411554656517013,0.5417175117564126,-0.04844796695953158,-0.0255504842846819,0.01122204453787319
66,1.3519898158868295,0.5221607795972817,-0.04895897664522522,-0.010487937855047313,0.012156371820737257
67,1.3624330314787751,0.5455914917838135,-0.04916873540232617,-0.05998008180093244,0.0008223027537942426
68,1.3733448613144514,0.5477727412203589,-0.05036833703834482,-0.07769778612033756,0.003995915234340726
69,1.3843003161388585,0.5413317330051327,-0.05192229276075157,-0.08285055720714934,0.032933259765136225
70,1.3951269507989612,0.4823174575211297,-0.05357930390489456,-0.009706736744714214,0.005248459741448917
71,1.4047732999493838,0.47246040516101845,-0.05377343863978884,-0.01068715554190345,0.004414736121826826
72,1.4142225080526043,0.4641062656459666,-0.05398718175062691,-0.01397583245271311,0.002841577045819013
73,1.4235046333655237,0.45889858871457617,-0.05426669839968117,-0.0220402203895134,0.01970839087184124
74,1.4326826051398152,0.41769296677399237,-0.05470750280747144,0.023730645952576852,0.0095142445241715
75,1.441036464475295,0.3963152716081602,-0.054232889888419906,0.039673230489624726,0.002690055573687632
76,1.4489627699074583,0.4036820198548444,-0.05343942527862741,0.012702699701374675,0.001779451774830444
77,1.4570364103045552,0.40015328331548883,-0.053185371284599915,0.0022845341889262214,0.006558864654873036
78,1.465039475970865,0.38493078914337947,-0.05313968060082139,0.009456859927806687,0.06306301261820844
79,1.4727380917537325,0.22606864478373098,-0.05295054340226525,0.2317979920513514,0.0142965978200351
80,1.477259464649407,0.2857651413069459,-0.048314583561238224,0.1268185627185559,0.024832267064907522
81,1.482974767475546,0.369545405673274,-0.04577821230686711,-0.012904148179824243,0.0016900831189517636
82,1.4903656755890116,0.3746691731042222,-0.046036295270463594,-0.03403584163757925,0.046671389585038164
83,1.497859059051096,0.25331515535526633,-0.04671701210321518,0.13427243563524593,0.019897220040982433
84,1.5029253621582015,0.17916476099503292,-0.044031563390510266,0.23164686936050788,0.0037817496258553346
85,1.5065086573781021,0.16034505375067906,-0.03939862600330011,0.246907972177003,0.003418697242234038
86,1.5097155584531157,0.14146826210539185,-0.03446046655976005,0.26362098673326073,0.009673603886702369
87,1.5125449236952235,0.08045984903201223,-0.02918804682509484,0.34494990293631933,0.01577949532664853
88,1.5141541206758637,0.24100175010742325,-0.022289048766368454,0.09565955598257353,0.01974073473044013
89,1.5189741556780123,0.3198156452504892,-0.020375857646716983,-0.029084359552418323,0.0068193197327689106
90,1.525370468583022,0.3409960477059146,-0.020957544837765348,-0.0668384559127872,0.006670064405583498
91,1.5321903895371403,0.3605507610875381,-0.022294313956021092,-0.10232515177424813,0.01763034397693368
92,1.539401404758891,0.3125429003256548,-0.024340816991506056,-0.03688524147547796,0.017000477674448202
93,1.5456522627654041,0.3662429841741199,-0.025078521821015616,-0.12456700001447102,0.06920734739367684
94,1.5529771224488864,0.17936007749919608,-0.027569861821305035,0.14829689952399489,0.0017424502277508835
95,1.5565643239988702,0.18888883227119788,-0.024603923830825138,0.12590468652595438,0.004972685539379449
96,1.5603421006442941,0.16431344580347887,-0.02208583010030605,0.15552378538180994,0.00312105175764097
97,1.5636283695603637,0.1468631968521053,-0.01897535439266985,0.17520006892574413,0.00542204751405802
98,1.5665656334974059,0.11296940058264163,-0.015471353014154969,0.22045319123814466,0.004897094105123526
99,1.5688250215090587,0.1520359746322078,-0.011062289189392074,0.15731194700795564,0.010769449814346766
100,1.5718657410017027,0.21819684017838398,-0.007916050249232962,0.0548244742272376,0.0027459178651598015
101,1.5762296778052705,0.20617138111425115,-0.006819560764688209,0.07053480318831101,0.03208665694049081
102,1.5803531054275555,0.35577878937269247,-0.005408864700921989,-0.15587602626642716,0.033241491079319174
103,1.5874686812150094,0.26285009495397593,-0.008526385226250533,-0.01807522213034954,0.011915271134615674
104,1.592725683114089,0.30733621216564466,-0.008887889668857524,-0.08730869926559727,0.006255859738889967
105,1.5988724073574019,0.32758189576819885,-0.01063406365416947,-0.12028903036294608,0.01215810254777446
106,1.605424045272766,0.29091049804906177,-0.013039844261428391,-0.06841139973764157,0.007477443960583389
107,1.611242255233747,0.31644470271654407,-0.014408072256181223,-0.11054305602292275,0.01582662344784655
108,1.617571149288078,0.26707068451204513,-0.016618933376639677,-0.04072554252723126,0.011310682726302288
109,1.622912562978319,0.22570349843688042,-0.017433444227184302,0.016430926405555712,0.00522816633454906
110,1.6274266329470566,0.20342958601839056,-0.01710482569907319,0.04471154498089053,0.006489010994569487
111,1.6314952246674244,0.23448643209037467,-0.01621059479945538,-0.006895482990523158,0.013206555683007543
112,1.6361849533092319,0.17969888876020845,-0.01634850445926584,0.07050932815925656,0.02558256201808924
113,1.639778931084436,0.04347812988347552,-0.01493831789608071,0.27000691471604066,0.002280684663849842
114,1.6406484936821055,0.08360180506961207,-0.009538179601759896,0.20543641499107554,0.0006788368461411575
115,1.6423205297834977,0.09086406725212827,-0.005429451301938385,0.19173933495377876,0.010761523314560128
116,1.6441378111285403,0.19637540404180712,-0.0015946646028628096,0.03187841169530664,0.019363857285245024
117,1.6480653192093764,0.2918949002606515,-0.0009570963689566767,-0.11186948165118796,0.011950687030334367
118,1.6539032172145893,0.2512572800503094,-0.0031944860019804356,-0.051194465544250896,0.00031903297917136846
119,1.6589283628155955,0.2500527292294049,-0.004218375312865454,-0.05032682581921992,0.01838431686814141
120,1.6639294174001835,0.3225039190903237,-0.005224911829249852,-0.1602428423409853,0.01701714525107424
121,1.67037949578199,0.26991060656786237,-0.008429768676069559,-0.0828900674797471,0.01451940510933345
122,1.6757777079133471,0.2168074297338428,-0.0100875700256645,-0.005716455024099218,0.0032586510500795564
123,1.680113856508024,0.20227103026351334,-0.010201899126146484,0.01312133949372856,0.028855706806522365
124,1.6841592771132943,0.06364839996257318,-0.009939472336271913,0.21804515797175011,0.00035723492341747806
125,1.6854322451125456,0.05905253377320529,-0.00557856917683691,0.2220164599771852,0.00866095077237351
126,1.6866132957880098,0.181336267815795,-0.0011382399772932057,0.03695362221682419,0.016602772197968227
127,1.6902400211443256,0.09284761263571929,-0.0003991675329567219,0.16935187652210387,0.011003672588191064
128,1.69209697339704,0.1996238839229402,0.002987869997485356,0.009070127099574943,0.002418502899893192
129,1.6960894510754987,0.18778559908028866,0.0031692725394768546,0.027705907572319513,0.015654600935941995
130,1.6998451630571045,0.2685292464861223,0.003723390690923245,-0.09247719071079186,0.028495468676243103
131,1.705215747986827,0.1633010054059923,0.0018738468767074076,0.06645875110973301,0.006100377359501127
132,1.708481768094947,0.19905769046101404,0.0032030218989020677,0.013374728350915362,0.002646677691996834
133,1.7124629219041672,0.18607952154819682,0.003470516465920375,0.03378356868764355,0.011793883342154508
134,1.7161845123351311,0.24735859182282077,0.004146187839673246,-0.05711415337598376,0.013380332197978078
135,1.7211316841715876,0.19396594834079667,0.0030039047721535706,0.024193099180713495,0.014155581806380763
136,1.7250110031384036,0.2647211693909391,0.0034877667557678405,-0.08105610687819442,0.004321302358832357
137,1.7303054265262223,0.28082177225282057,0.001866644618203952,-0.10418146293184924,0.009674982789245657
138,1.7359218619712786,0.24660641236848527,-0.0002169846404330327,-0.05230971932029574,0.006193344619636013
139,1.7408539902186484,0.2713498073902296,-0.0012631790268389474,-0.08948860446296644,0.024376524886285916
140,1.746280986366453,0.1823908775947009,-0.0030529511160982763,0.04357830923664302,0.003912168789501795
141,1.749928803918347,0.1617332822346954,-0.002181384931365416,0.07366699163842685,0.002834004777932909
142,1.753163469563041,0.14501599711346885,-0.000708045098596879,0.09810153299793688,0.007589932393450162
143,1.7560637895053104,0.19456489061391327,0.0012539855613618585,0.023570046135855782,0.014758791739202524
144,1.7599550873175887,0.26814686251145003,0.0017253864840789741,-0.08643415327241917,0.01772585486620236
145,1.7653180245678177,0.33357380374646717,-3.2965813694092825e-06,-0.184067155670378,0.018567825349532892
146,1.771989500642747,0.3892766637032207,-0.0036846396947769694,-0.26762241479997695,0.024072317317870316
147,1.7797750339168115,0.32705292697476473,-0.009037087990776509,-0.1753707249143017,0.027029542108648386
148,1.7863160924563068,0.24453852274055604,-0.012544502489062543,-0.05426104038274253,0.0038693191770570947
149,1.791206862911118,0.2291242638561639,-0.013629723296717394,-0.03482945827925818,0.010435591500839848
150,1.7957893481882412,0.18457648216462552,-0.014326312462302556,0.027978993061432728,0.007253117161334051
151,1.7994808778315337,0.22285656774777912,-0.013766732601073903,-0.03364703465465164,0.00471163900011025
152,1.8039380091864892,0.2438225549866538,-0.014439673294166936,-0.06914032694805275,1.0054969886666596e-05
153,1.8088144602862222,0.24398878402139468,-0.01582247983312799,-0.07363476093018521,0.021966664209747244
154,1.8136942359666501,0.15516013076255664,-0.017295175051731695,0.05493992558222817,0.002361459477795834
155,1.8167974385819012,0.1407952534885081,-0.016196376540087133,0.07139949095079476,0.007455241147120933
156,1.8196133436516715,0.09053274346716822,-0.014768386721071239,0.14202184093384695,0.002997425858948533
157,1.8214239985210148,0.12089516680099445,-0.0119279499023943,0.09214142463005523,0.0050255149691047106
158,1.8238419018570347,0.08186906865766491,-0.010085121409793195,0.14716967342098142,0.007687970914325774
159,1.825479283230188,0.1667079651066872,-0.007141727941373566,0.016952824962192248,0.01170818939792465
160,1.8288134425323217,0.09860712483954524,-0.0068026714421297214,0.11700183013220235,0.007265601023087174
161,1.8307855850291126,0.16691095517398022,-0.004462634839485675,0.012548485281112548,0.013842448499187253
162,1.8341238041325922,0.2476096633264649,-0.004211665133863424,-0.10981038189488897,0.009430683239952737
163,1.8390759973991215,0.2855923490174781,-0.006407872771761203,-0.16802213101470143,0.008536777292017362
164,1.8447878443794712,0.2557204727871595,-0.009768315392055232,-0.12509913829158403,0.015448187407007279
165,1.8499022538352143,0.19558353461770533,-0.012270298157886913,-0.037769873755460814,0.00025994176499419296
166,1.8538139245275684,0.1970675807114352,-0.013025695632996128,-0.043603152455013255,0.027550166596033675
167,1.857755276141797,0.05947968780002538,-0.013897758682096393,0.15893173266123434,0.008192916853600527
168,1.8589448698977975,0.1795074209893635,-0.010719124028871707,-0.02517828961462798,0.0015222654120228038
169,1.8625350183175848,0.17133471419123458,-0.011222689821164266,-0.016071295806664325,0.02049295567671054
170,1.8659617126014094,0.28868465684234523,-0.011544115737297552,-0.19538452638639825,0.018134777966148635
171,1.8717354057382563,0.22561882686041204,-0.015451806265025517,-0.10418597941389043,0.004116683618439417
172,1.8762477822754644,0.24402267049645762,-0.017535525853303327,-0.13633109965144075,0.02192004616843366
173,1.8811282356853936,0.15435573615442832,-0.02026214784633214,-0.007006557079574066,0.015781972757046795
174,1.8842153504084822,0.2545998302985442,-0.02040227898792362,-0.1632984964516083,0.02582167220693053
175,1.889307347014453,0.15297736276052265,-0.023668248916955785,-0.016894373434058668,0.004636917570005154
176,1.8923668942696634,0.12359687749993374,-0.024006136385636957,0.02020619560320614,0.001435135478774551
177,1.894838831819662,0.11269679898356688,-0.023602012473572836,0.029494476140647905,0.01074909184590221
178,1.8970927677993334,0.20499197527373536,-0.023012122950759877,-0.11584807741985559,0.021080502998209214
179,1.9011926073048082,0.10235363829306332,-0.02532908449915699,0.03130369811378633,0.0017192192419537543
180,1.9032396800706695,0.1188784979641126,-0.024703010536881263,-0.0009215951288233243,0.0024234826763863265
181,1.9056172500299517,0.13912772780072324,-0.02472144243945773,-0.03854811916522779,0.010343077511406552
182,1.9083998045859663,0.06603147151271364,-0.025492404822762285,0.06379539862269334,0.002817551854439484
183,1.9097204340162206,0.026520311608144866,-0.024216496850308418,0.11554892661784942,0.0010863524709176621
184,1.9102508402483835,0.060224799368996,-0.021905518317951428,0.05788806424330147,0.0050619490174626846
185,1.9114553362357634,-0.018027383501474224,-0.020747757033085398,0.16879847025177616,0.000718038996011938
186,1.911094788565734,0.04991100897980976,-0.017371787628049876,0.0608134118487631,0.0017165521891265546
187,1.91209300874533,0.08195219234607456,-0.016155519391074614,0.00765183994740426,0.001462279771727437
188,1.9137320525922517,0.06484984402140599,-0.01600248259212653,0.02855249862209205,0.00030030849864797333
189,1.9150290494726798,0.06065012004615876,-0.015431432619684689,0.03014674891770721,0.0026941343108135905
190,1.916242051873603,0.10325071397069457,-0.014828497641330545,-0.038283194922188714,0.005544250492313091
191,1.9183070661530168,0.05017894681623286,-0.01559416153977432,0.036956285190774894,0.00092031058603734
