,X,v,theta,theta_dot,energy
0,0.0,2.0,-0.5235987755982988,0.0,1.0208065285474748
1,0.04,1.5170893520747386,-0.5235987755982988,0.480319333291919,0.6044492045466857
2,0.07034178704149477,1.1460626723571306,-0.5139923889324605,0.8152971284677807,0.40319258908427513
3,0.09326304048863737,0.8237992066848074,-0.49768644636310483,1.0916847805365317,0.25271768625449814
4,0.10973902462233352,0.5496708795305888,-0.4758527507523742,1.3126414455934259,0.20888861455583488
5,0.1207324422129453,0.221841920173673,-0.4495999218405057,1.6150729620305424,0.0698891515832734
6,0.12516928061641874,-0.006862117097571091,-0.41729846259989484,1.7962625239532382,0.00024081561991192796
7,0.12503203827446732,-0.006268296493786161,-0.3813732121208301,1.6762923152693294,0.0027663978419436193
8,0.1249066723445916,0.03878553691536159,-0.3478473658154435,1.504141504569095,0.004644275803542379
9,0.12568238308289884,-0.00085340888901516,-0.3177645357240616,1.4598216621732998,0.004701507939368121
10,0.12566531490511854,0.07562743731756352,-0.2885681024805956,1.2589852944489217,0.0031664066258200894
11,0.1271778636514698,0.055580729231417395,-0.26338839659161717,1.2041455614256853,0.0002884626716366769
12,0.12828947823609815,0.06138031488088617,-0.23930548536310348,1.119202242241592,0.014862835442832265
13,0.12951708453371588,-0.06579510978300346,-0.21692144051827164,1.2348429489627097,0.0012565793680999644
14,0.1282011823380558,0.04962509813980712,-0.19222458153901745,1.0024940801996012,0.008581475339240969
15,0.12919368430085196,0.14053693682071228,-0.17217469993502543,0.8124713535944268,0.009301284250748847
16,0.1320044230372662,0.1940087547190825,-0.1559252728631369,0.6830798990825788,0.01854981950789862
17,0.13588459813164785,0.27652807698502363,-0.14226367488148534,0.5151460708944899,0.03000719410579419
18,0.14141515967134832,0.3760321071275422,-0.13196075346359554,0.32571329406589344,0.027341424123008305
19,0.14893580181389918,0.44607156161303807,-0.12544648758227767,0.18288355554009492,0.0011181903553853655
20,0.15785723304615995,0.4454472609686395,-0.12178881647147577,0.14702803666876588,0.01165623910640386
21,0.16676617826553275,0.47229970490960005,-0.11884825573810046,0.07133025631555719,0.03745426308150723
22,0.17621217236372475,0.39722094304771494,-0.11742165061178932,0.14829478647145797,0.018526443239010155
23,0.18415659122467903,0.35418189055842286,-0.11445575488236015,0.17796612516042465,0.023792280236077226
24,0.1912402290358475,0.29178252140228206,-0.11089643237915166,0.23737619825468176,0.007670050655334682
25,0.19707587946389316,0.3180666792485363,-0.10614890841405802,0.16565537974737393,0.03667320063146411
26,0.2034372130488639,0.20976312400585284,-0.10283580081911055,0.29604712556256063,0.02543473803382793
27,0.20763247552898095,0.3223310710570743,-0.09691485830785934,0.09790677437552175,0.012227724552241007
28,0.21407909695012245,0.36019374608678295,-0.09495672282034891,0.012930885758587016,0.02943468952703986
29,0.2212829718718581,0.2820022127369781,-0.09469810510517716,0.10181446470852573,0.004746968221656496
30,0.22692301612659768,0.2994983260919837,-0.09266181581100665,0.047888232667037116,0.006352172109321176
31,0.23291298264843735,0.321349141237695,-0.0917040511576659,-0.011950984399776557,0.00951376910730206
32,0.23933996547319125,0.2937415568572309,-0.09194307084566143,0.002363168672805444,0.013474222496982713
33,0.24521479661033588,0.2503435855037213,-0.09189580747220533,0.04019197599809655,0.005527324543930636
34,0.2502216683204103,0.23028127936587314,-0.09109196795224339,0.04317910015781015,0.006801778737527194
35,0.2548272939077278,0.26013609940204746,-0.09022838594908719,-0.02816147943134914,0.03900735552390382
36,0.26003001589576874,0.11449661501410852,-0.09079161553771417,0.16291792786032216,0.008649896065578332
37,0.2623199481960509,0.04658622241246166,-0.08753325698050773,0.2377078818913026,0.0041998837085852865
38,0.26325167264430016,-0.023574300715258192,-0.08277909934268168,0.31684381624008695,5.152649470589534e-05
39,0.26278018662999497,-0.01695049033554609,-0.07644222301787995,0.28263285260929516,0.0004366984875151175
40,0.26244117682328405,0.08704210124849374,-0.07078956596569405,0.10464736465966751,0.0027306007245357137
41,0.26418201884825393,0.05903978210617277,-0.0686966186725007,0.12575088959795297,0.0028438971918550936
42,0.2653628144903774,0.10286048104592882,-0.06618160088054163,0.039993955928116595,0.013293774780086486
43,0.267420024111296,-0.020057464708108638,-0.0653817217619793,0.20452404621176956,0.000952924106335962
44,0.2670188748171338,0.06709251312857292,-0.06129124083774391,0.05486985546262818,0.0007070790258024223
45,0.26836072507970526,0.07788013936586352,-0.06019384372849135,0.020710455532240164,0.010972421286688959
46,0.2699183278670225,-0.057036529049919016,-0.05977963461784654,0.20503263121153636,0.008155750204578758
47,0.26877759728602413,0.11046918914686413,-0.05567898199361582,-0.06334187698422394,0.014013892554868023
48,0.2709869810689614,-0.01577599351135625,-0.056945819533300295,0.10937127469448962,0.00030993225026391236
49,0.2706714611987343,-0.04292088088932594,-0.054758394039410505,0.13328958017807424,0.0032150122686583666
50,0.26981304358094776,0.042912803874049985,-0.05209260243584902,-0.011358890787433684,0.0025635153568150035
51,0.2706712996584288,-0.015319447915152322,-0.05231978025159769,0.06056269831267572,0.001971909043564422
52,0.27036491070012575,-0.16758482211875592,-0.05110852628534417,0.27327322845966984,0.01510523399505442
53,0.26701321425775065,-0.0719078762340279,-0.045643061716150776,0.11492583971825762,0.0011462337260221436
54,0.2655750567330701,-0.08802082817288481,-0.043344544921785626,0.12565569471138147,0.0008053742509354314
55,0.26381464016961237,-0.07785654400509154,-0.040831431027558,0.09768428198784312,0.001892398204066234
56,0.2622575092895105,-0.052128776180408745,-0.03887774538780114,0.04712369053887929,0.004196468861117277
57,0.2612149337659023,-0.13346423746205008,-0.037935271577023554,0.15760751345819415,0.018887245062867635
58,0.2585456490166613,0.01295252015391965,-0.03478312130785967,-0.07300990733983462,7.748875487499984e-05
59,0.2588046994197397,0.0212955080844006,-0.036243319454656364,-0.0957409953058447,0.001196793069391695
60,0.25923060958142774,-0.047077642835533354,-0.03815813936077326,-0.0039018249229381546,0.006587090333587875
61,0.2582890567247171,-0.1825115886258244,-0.03823617585923202,0.18788544267527335,0.02700389275006342
62,0.2546388249522006,-0.03055175894652229,-0.03447846700572656,-0.051126394333679104,0.003445897523998359
63,0.2540277897732701,-0.1323128435586594,-0.03550099489240014,0.09128985301740983,0.0008979619507783413
64,0.2513815329020969,-0.12496973177262488,-0.033675197832051945,0.06984702536857129,0.0056100331260661935
65,0.24888213826664443,-0.16942085978152557,-0.032278257324680516,0.12658727759703253,8.343998214408394e-05
66,0.24549372107101392,-0.16945613858666714,-0.029746511772739865,0.11715200838326344,0.005428759263587413
67,0.24210459829928058,-0.201296726767562,-0.027403471605074597,0.15614757671367982,0.016617642726789405
68,0.23807866376392933,-0.11742714378793556,-0.024280520070801,0.02233482336570969,0.009158594102512305
69,0.2357301208881706,-0.1938307270452534,-0.023833823603486806,0.1297686459609577,0.011595249515171392
70,0.23185350634726554,-0.1332981614730145,-0.021238450684267652,0.03198910482127196,0.003972589264297752
71,0.22918754311780526,-0.16238870969529268,-0.020598668587842213,0.06937145099189607,0.0013353453404913226
72,0.22593976892389941,-0.15391232671271213,-0.01921123956800429,0.050603993544371534,0.0037964609909525264
73,0.22286152238964518,-0.1780660747642646,-0.01819915969711686,0.08118017296475744,0.01877703523317588
74,0.2193002008943599,-0.28285726336608863,-0.016575556237821712,0.2329906681179302,0.034814362169070016
75,0.21364305562703811,-0.15787365615616844,-0.011915742875463108,0.040668020675092814,0.006436985216222339
76,0.21048558250391475,-0.1979521945377295,-0.011102382461961251,0.09727841488159861,0.024509151698929425
77,0.20652653861316017,-0.07424082943329269,-0.009156814164329279,-0.09154122951380536,0.006982231589584456
78,0.2050417220244943,-0.16099420717279606,-0.010987638754605386,0.03589131586617686,0.0021114853296387947
79,0.20182183788103839,-0.17376292613305616,-0.01026981243728185,0.05181293736493588,0.002595971349515416
80,0.19834657935837727,-0.1588401929395087,-0.009233553689983132,0.026410746196460635,0.0040084540052047
81,0.19516977549958708,-0.18351537478400284,-0.008705338766053918,0.060707314937108875,0.021971821105633702
82,0.19149946800390702,-0.06480087134789714,-0.00749119246731174,-0.11991703013186106,0.011604704141483204
83,0.19020345057694907,-0.2258520393508613,-0.009889533069948962,0.1194505535201636,0.015645630301331346
84,0.18568640978993184,-0.15646194645046418,-0.007500521999545691,0.012463028711677676,0.0015724235731736254
85,0.18255717086092255,-0.16619473121959777,-0.007251261425312137,0.02485666241655512,0.003273535836495286
86,0.1792332762365306,-0.1854387775039366,-0.006754128176981035,0.05159012076947433,0.00885491061197219
87,0.17552450068645187,-0.2325248949535051,-0.005722325761591548,0.12023198737373011,0.0031863039863521646
88,0.17087400278738177,-0.2187523287110866,-0.0033176860141169457,0.0978911216538966,0.011772454788926951
89,0.16649895621316005,-0.27229864389318986,-0.0013598635810390136,0.17723475448883852,0.0018690814431637987
90,0.16105298333529625,-0.26537834876620864,0.0021848315087377567,0.1664545216266676,0.027521751761602157
91,0.15574541635997208,-0.16126222251222638,0.005513921941271109,0.010923044945946647,0.009635316611097414
92,0.15252017190972755,-0.21981326319028704,0.005732382840190042,0.10036935569254138,0.016174461239494453
93,0.14812390664592182,-0.14658604821870902,0.007739769954040869,-0.007784350748322788,0.0015560990226679906
94,0.14519218568154763,-0.15702874310241965,0.0075840829390744135,0.010154692057910055,0.004150624079126091
95,0.14205161081949924,-0.18300098647444119,0.0077871767802326144,0.051341635720764806,0.0033353346504244536
96,0.13839159109001042,-0.20112347899547486,0.00881400949464791,0.08081395712876578,0.0015114708874951748
97,0.13436912151010091,-0.19378162570834598,0.010430288637223227,0.07239289020861255,0.0011027735099418737
98,0.130493488995934,-0.18828328518513512,0.011878146441395478,0.06721227730520779,0.0031533639508524837
99,0.12672782329223128,-0.17184476995380935,0.013222391987499634,0.046048336860468574,0.006180703994055126
100,0.1232909278931551,-0.2075560652291355,0.014143358724709006,0.10349786721555296,0.0062901910850809315
101,0.11913980658857239,-0.23801071597478454,0.016213316069020066,0.1533332832599295,0.028664306504394558
102,0.1143795922690767,-0.11720584901648472,0.019279981734218656,-0.023083694483101352,0.0013023017214707968
103,0.112035475288747,-0.12822603643409147,0.01881830784455663,-0.000888522092949727,0.005554217866470624
104,0.10947095456006517,-0.08625089426433877,0.018800537402697635,-0.0583078312533278,0.0001625730596712836
105,0.1077459366747784,-0.08830444162281947,0.01763438077763108,-0.04970102219972952,0.009140253509547487
106,0.105979847842322,-0.187020117687822,0.01664036033363649,0.10353370842868825,0.002436124207682758
107,0.10223944548856556,-0.17422252550368267,0.018711034502210254,0.08923201800823315,0.002411635962896527
108,0.09875499497849191,-0.18831678449721526,0.020495674862374916,0.11587042893748645,0.02106697327763307
109,0.0949886592885476,-0.07633295019550042,0.022813083441124645,-0.04604473619298596,3.7137577810037176e-05
110,0.0934620002846376,-0.07619797704563115,0.021892188717264924,-0.03954067845511473,0.0034886609141046208
111,0.09193804074372497,-0.03287492166932075,0.02110137514816263,-0.09807390025209556,0.0004054540568969879
112,0.09128054231033855,-0.02258170476551318,0.01913989714312072,-0.1073069443938321,0.0037272631177335262
113,0.09082890821502829,-0.15528329455018164,0.016993758255244077,0.0973357675992377,0.004707507906548478
114,0.08772324232402465,-0.12508397916248756,0.018940473607228833,0.05703925971470592,0.009101271412118438
115,0.0852215627407749,-0.052868526101976246,0.02008125880152295,-0.045696324140261584,0.001637905224073994
116,0.08416419221873538,-0.08223824635431072,0.019167332318717718,0.004252867176957401,0.0006368999781732185
117,0.08251942729164916,-0.07493978362997249,0.019252389662256866,-0.0010579652941257942,0.0011742795369398412
118,0.08102063161904971,-0.05993857642172887,0.01923123035637435,-0.01789575313257556,0.006846572607857502
119,0.07982186009061513,-0.170159921320967,0.018873315293722836,0.15305932516319498,0.017006945527751116
120,0.0764186616641958,-0.06876777134595724,0.021934501796986736,0.006546611753173004,0.005897464389521823
121,0.07504330623727665,-0.15311024787420058,0.022065434032050194,0.13947811991160494,0.020943370862313033
122,0.07198110127979264,-0.014218292112221642,0.024854996430282293,-0.06232238645371602,0.0012268694725741543
123,0.0716967354375482,-0.08477220045150953,0.023608548701207974,0.05078240472108164,0.01192454534960214
124,0.07000129142851802,0.05595881408851654,0.024624196795629605,-0.1533150224982139,0.008313589247408947
125,0.07112046771028835,-0.10994085980317168,0.021557896345665326,0.10269782933371516,0.012850760983481601
126,0.06892165051422491,0.008838630497784494,0.023611852932339628,-0.06909247566603005,0.00035020883376694174
127,0.0690984231241806,-0.05145059738220987,0.022230003419019026,0.028257397746175403,7.579885194071205e-05
128,0.0680694111765364,-0.05029523417690934,0.022795151373942533,0.03305986386314033,0.0008112448744136599
129,0.06706350649299822,-0.03440185186260126,0.023456348651205338,0.015927178124372908,0.00385835405929442
130,0.0663754694557462,0.07702881156541233,0.023774892213692795,-0.14427730309616182,0.0030374925669289397
131,0.06791604568705445,0.03463959143763109,0.02088934615176956,-0.07372228245943147,0.0008758675983969194
132,0.06860883751580707,0.007031238158775339,0.01941490050258093,-0.026177766572406364,0.0003216233399455142
133,0.06874946227898257,0.060466338973601014,0.018891345171132803,-0.10060768980294059,0.0010363114035582682
134,0.0699587890584546,0.07828364101456789,0.01687919137507399,-0.12177514885982225,0.0031269642518776375
135,0.07152446187874595,0.03610823618049298,0.014443688397877547,-0.053558806822448526,0.0014235915767955637
136,0.07224662660235581,-0.005342803941536772,0.013372512261428576,0.012857564573722599,0.00015178190172879477
137,0.07213977052352508,0.025584571367333876,0.013629663552903029,-0.029597949100848987,0.0027287012452658884
138,0.07265146195087176,0.13521525349979133,0.01303770457088605,-0.1900217011338148,0.027775719020368416
139,0.07535576702086759,-0.07905133957280888,0.009237270548209752,0.13518384935805614,0.006186938166203852
140,0.07377474022941141,0.003606796881019003,0.011940947535370875,0.013917653298194388,0.0001102059620525261
141,0.0738468761670318,0.02879708411925214,0.012219300601334762,-0.020354528602258358,0.0011948068419303716
142,0.07442281784941684,-0.013199844779733325,0.011812210029289595,0.0462285468204252,0.00029610254184227354
143,0.07415882095382217,0.012658836164524206,0.0127367809656981,0.010915940376461125,0.0009360753910727896
144,0.07441199767711267,0.08189734320993039,0.012955099773227322,-0.0891888837529449,0.011412162660561454
145,0.07604994454131127,-0.061314613138464924,0.011171322098168424,0.12941971687246118,0.005515420059829953
146,0.07482365227854197,0.035595905574743625,0.013759716435617648,-0.012652690197432453,0.0018591467351187566
147,0.07553557039003685,0.08718995699313936,0.013506662631669,-0.08599121223998846,0.0056068405489432755
148,0.07727936952989964,0.021315400462103506,0.01178683838686923,0.016782447653116733,0.0009906041798714495
149,0.0777056775391417,0.06491960417229967,0.012122487339931565,-0.04515406428335539,0.00043201427596286285
150,0.0790040696225877,0.07144996011265763,0.011219406054264457,-0.05138495446562266,0.0061258594071940675
151,0.08043306882484086,-0.015181904158695539,0.010191706964952004,0.08185309961352413,0.0019354861797281258
152,0.08012943074166695,0.14942000778438336,0.011828768957222487,-0.1620406354261627,0.02802720080722905
153,0.08311783089735462,-0.04323354769236673,0.008587956248699232,0.13039705796821865,0.01271211084159668
154,0.08225315994350729,0.2890768096387548,0.011195897408063605,-0.36552526837771643,0.05820315895058265
155,0.08803469613628238,0.08051090764175814,0.003885392040509276,-0.04940449761244753,0.0003892614637007292
156,0.08964491428911754,0.07560289102698732,0.0028973020882603253,-0.040900225873964,0.004130044841727331
157,0.09115697210965729,0.1302006474405506,0.0020792975707810456,-0.12194471113743714,0.02199183228165684
158,0.0937609850584683,-0.041943972000360985,-0.0003595966519676975,0.13688297287178464,0.002134549908411048
159,0.09292210561846108,0.016358201556966996,0.0023780628054679955,0.04932399677667226,0.0010029467866017857
160,0.09324926964960042,0.06893024172302178,0.0033645427410014406,-0.028834690688308517,0.004365386799261729
161,0.09462787448406086,0.005898600007712848,0.0027878489272352702,0.06670141043911837,0.0009303510302160348
162,0.09474584648421512,0.10749489523882776,0.004121877136017638,-0.08487281367248517,0.01256712182349817
163,0.09689574438899168,-0.010867340682199036,0.0024244208625679342,0.09388086043835384,0.0015126079476875845
164,0.0966783975753477,0.21268918278259236,0.004302038071335011,-0.2407401602058157,0.037226051430485116
165,0.10093218123099955,0.03260947836379077,-0.0005127651327813034,0.0306416920947222,0.0019741667924805186
166,0.10158437079827537,0.08926056667700746,0.00010006870911314063,-0.05448568214616312,0.0026930194276496974
167,0.10336958213181552,0.0589846832589937,-0.0009896449338101217,-0.00904243704609356,0.0010079225229036285
168,0.1045492757969954,0.042210802446443624,-0.0011704936747319928,0.01582741628846829,0.001314173072265986
169,0.10539349184592427,0.0720927903026997,-0.000853945348962627,-0.029339659852727063,0.004990680255190863
170,0.10683534765197826,0.14091528634187026,-0.0014407385460171681,-0.13282442617337442,0.008202568718490608
171,0.10965365337881566,0.08160441833622677,-0.004097227069484656,-0.04428179348578623,0.0039439754062195525
172,0.11128574174554019,0.13000714995350876,-0.004982862939200381,-0.11808986288843061,0.010526315731930485
173,0.11388588474461037,0.047684475964900525,-0.007344660196968993,0.003927659468253505,0.0007798145303036668
174,0.11483957426390838,0.031894611746684905,-0.007266107007603923,0.025452506287594406,0.002852812890041225
175,0.11547746649884208,0.11620739153827478,-0.006757056881852035,-0.10314954152439523,0.007146423360726294
176,0.11780161432960758,0.0537848144212089,-0.00882004771233994,-0.011504373005836316,0.0022701919954694976
177,0.11887731061803175,0.012327944696860639,-0.009050135172456666,0.04808545239145957,0.0015768078639602316
178,0.11912386951196896,0.11845094322269964,-0.008088426124627474,-0.11375322986245498,0.010949383659680744
179,0.12149288837642296,0.024267569122834676,-0.010363490721876574,0.025139238667420488,0.0012509238411860671
180,0.12197823975887966,-0.02361192474529239,-0.009860705948528163,0.09390781100860275,0.0002458163879939498
181,0.1215060012639738,-0.011072720635468032,-0.007982549728356108,0.0722009186913605,0.0007215880665693696
182,0.12128454685126444,0.07940107727601406,-0.006538531354528898,-0.06585229907739859,0.000668874420220019
183,0.12287256839678472,0.08803527918357285,-0.00785557733607687,-0.08072563961103867,0.00652403856071147
184,0.12463327398045618,0.01270420143824165,-0.009470090128297644,0.029957974525671435,0.000786745709543949
185,0.12488735800922102,-0.04172838276473536,-0.008870930637784215,0.10881902473336508,0.004850825497454938
186,0.12405279035392631,0.08706106042058195,-0.006694550143116913,-0.08696555833561634,0.009254056632532042
187,0.12579401156233797,-0.0214762956884927,-0.00843386130982924,0.07386864456181685,0.0004805060397156777
