,X,v,theta,theta_dot,energy
0,0.0,2.0,-0.6981317007977318,0.0,1.2
1,0.04,1.438666391579706,-0.6981317007977318,0.4560301799515931,0.5858873816669732
2,0.06877332783159412,1.0639688705012043,-0.6890110971986999,0.6976030535127141,0.4843780037685903
3,0.09005270524161821,0.6488731982799218,-0.6750590361284456,0.9912884707105245,0.17345612017082435
4,0.10303016920721665,0.4146757427504576,-0.6552332667142352,1.0818015213540786,0.08950658611551915
5,0.1113236840622258,0.23348347568890315,-0.6335972362871536,1.1181569230401407,0.06262127587787289
6,0.11599335357600386,0.02267076937508075,-0.6112340978263507,1.1989368131052027,0.004833223993897145
7,0.11644676896350548,-0.03957400094627144,-0.5872553615642467,1.106678657035392,0.0003916627157955145
8,0.11565528894458005,-0.17710429749990778,-0.5651217884235389,1.1155132834236154,0.016313334751748728
9,0.1121132029945819,-0.28773377447768705,-0.5428115227550666,1.0982145643673613,0.05129256947470376
10,0.10635852750502815,-0.48268503163115284,-0.5208472314677194,1.1967435929992603,0.02659799826699974
11,0.0967048268724051,-0.5358553724662595,-0.49691235960773417,1.1196244859126725,0.05392778142993175
12,0.08598771942307991,-0.6359503936296711,-0.4745198698894807,1.1114547822927547,0.03940208367749321
13,0.07326871155048649,-0.6948433046722773,-0.4522907742436256,1.0557017697153164,0.030601743316705503
14,0.059371845457040946,-0.734948746481604,-0.4311767388493193,0.9813249579238003,0.07455582182508491
15,0.04467287052740886,-0.8334095761700243,-0.41155023969084326,0.9926243002588959,0.06389454040748717
16,0.028004679004008378,-0.9064005112684497,-0.39169775368566534,0.975359785255847,0.06962224546353275
17,0.009876668778639384,-0.9794171886570284,-0.3721905579805484,0.964352732789404,0.20081341940557332
18,-0.009711674994501186,-1.1817002469612123,-0.35290350332476034,1.1400876171729728,0.011075139698680346
19,-0.03334567993372543,-1.1680686776857683,-0.3301017509813009,1.0192869632440429,0.056400300045186126
20,-0.0567070534874408,-1.2126076482186545,-0.30971601171642005,0.9871914377091792,0.11475192533132529
21,-0.0809592064518139,-1.3038221234271916,-0.2899721829622365,1.0278954732062942,0.12340985000127717
22,-0.10703564892035773,-1.3952780874633275,-0.2694142734981106,1.075290123059305,0.03891354342541791
23,-0.13494121066962428,-1.4199339397228268,-0.24790847103692448,1.032686720097028,0.16618513093257256
24,-0.16333988946408082,-1.5342471490325704,-0.2272547366349839,1.126773504941,0.04077573713432222
25,-0.19402483244473223,-1.558092295851303,-0.2047192665361639,1.0953822994611753,0.10201629892063944
26,-0.2251866783617583,-1.489736289015199,-0.1828116205469404,0.935221459534272,0.1706202992238495
27,-0.2549814041420623,-1.602024601537246,-0.16410719135625496,1.0473994971739997,0.009645080388596922
28,-0.2870218961728072,-1.5938524780213366,-0.14315920141277497,0.9872747600772556,0.03418276599650891
29,-0.31889894573323396,-1.570473607163743,-0.12341370621122985,0.9106200079476915,0.09950544450718904
30,-0.35030841787650885,-1.5054164629975806,-0.10520130605227603,0.7775849160633588,0.1491766809148545
31,-0.38041674713646045,-1.4050722745359276,-0.08964960773100886,0.5970286059881281,0.018384753318478244
32,-0.40851819262717903,-1.3908170054089686,-0.0777090356112463,0.5494098790711847,0.012098885189728688
33,-0.4363345327353584,-1.3810924643777427,-0.06672083802982261,0.5120436183954785,0.09145374848652205
34,-0.4639563820229132,-1.4458429901769299,-0.05647996566191304,0.5893519256098402,0.24470466319889245
35,-0.4928732418264518,-1.2768611438826447,-0.04469292714971623,0.3196870530997576,0.14996814521180846
36,-0.5184104647041047,-1.1603386312450348,-0.03829918608772108,0.13194247000502995,0.07763389280707143
37,-0.5416172373290054,-1.0941843704146594,-0.03566033668762048,0.02152663936362506,0.06936117841166217
38,-0.5635009247372985,-1.1555676523395606,-0.03522980390034798,0.10306110738957414,0.04314991379318373
39,-0.5866122777840898,-1.1916382406339143,-0.0331685817525565,0.14677799689064228,0.06788704100704772
40,-0.610445042596768,-1.1352753573547167,-0.030233021814743653,0.052530398536016626,0.01111643216793116
41,-0.6331505497438623,-1.1252696484875258,-0.02918241384402332,0.028641539486874805,0.04799718494021708
42,-0.6556559427136128,-1.0831922320672833,-0.028609583054285823,-0.0430261237533947,0.07550679639033664
43,-0.6773197873549585,-1.15066312142939,-0.029470105529353717,0.04972872398241845,0.09031894009110672
44,-0.7003330497835463,-1.2269651004903368,-0.02847553104970535,0.15546903875208176,0.019288304330365727
45,-0.724872351793353,-1.2419824474756032,-0.025366150274663712,0.16961525238266129,0.0866884365700232
46,-0.749712000742865,-1.1731014971312674,-0.021973845227010486,0.05887021728813013,0.07286989303808407
47,-0.7731740306854904,-1.112047932275759,-0.020796440881247883,-0.03914781172112507,0.08220789812324163
48,-0.7954149893310056,-1.183754068691609,-0.021579397115670383,0.06227442158742774,0.002537834761302378
49,-0.8190900707048379,-1.1855413147030849,-0.020333908683921827,0.058610816060161705,0.01911224397253502
50,-0.8428008969988996,-1.2010127075991412,-0.019161692362718592,0.07583535067883265,0.17414440745224427
51,-0.8668211511508824,-1.0588733433204491,-0.01764498534914194,-0.14296774772184498,0.036912473811926805
52,-0.8879986180172914,-1.0924224066122497,-0.02050434030357884,-0.09783934309968255,0.06828814601917815
53,-0.9098470661495364,-1.1528656482844657,-0.02246112716557249,-0.013221392594547979,0.04287141753307853
54,-0.9329043791152257,-1.1888032449246244,-0.02272555501746345,0.034068388841101256,0.03015686781577767
55,-0.9566804440137182,-1.2132575138981474,-0.022044187240641423,0.06405958254301446,0.10580833908190572
56,-0.9809455942916812,-1.1276569146066666,-0.020762995589781133,-0.07079058585302732,0.061864405020067535
57,-1.0034987325838145,-1.1807283426611563,-0.02217880730684168,0.0026955153312459706,0.06663680605500447
58,-1.0271132994370376,-1.125346128406166,-0.022124897000216758,-0.08687740981030231,0.1043163561556064
59,-1.049620222005161,-1.2151459439457004,-0.023862445196422805,0.041285157298851516,0.010105454497502851
60,-1.073923140884075,-1.2066782855862968,-0.023036742050445775,0.021572392693998476,0.1435166348080134
61,-1.098056706595801,-1.0902237803562789,-0.022605294196565807,-0.15983521927414698,0.04560794016822496
62,-1.1198611822029265,-1.130441886455393,-0.025801998582048746,-0.10616886353298774,0.11570666885917638
63,-1.1424700199320343,-1.0306427050300986,-0.0279253758527085,-0.26340275388424694,0.15164181616253714
64,-1.1630828740326362,-1.1721332535666387,-0.03319343093039344,-0.05945867274527569,0.16036799629389145
65,-1.186525539103969,-1.304820290699069,-0.03438260438529895,0.1297051699710396,0.12549641873723902
66,-1.2126219449179505,-1.2100774253996447,-0.031788500985878154,-0.022431629246099205,0.02310356511591535
67,-1.2368234934259434,-1.2282317983076374,-0.03223713357080014,-0.004558072954587548,0.1152938529891805
68,-1.261388129392096,-1.13621194504362,-0.03232829502989189,-0.1519922122884647,0.027395795563114424
69,-1.2841123682929685,-1.1591289532461657,-0.03536813927566118,-0.1271375249318787,0.03884867709947207
70,-1.3072949473578919,-1.1260898717780423,-0.03791088977429875,-0.18706121900931086,0.02112263935713319
71,-1.3298167447934528,-1.1437091098747114,-0.04165211415448497,-0.1717944837648428,0.056467711425386216
72,-1.352690926990947,-1.1909495487282038,-0.04508800382978183,-0.11323746564828413,0.029281133337013456
73,-1.3765099179655111,-1.1664244091492513,-0.04735275314274751,-0.16323917017692408,0.13016257253370364
74,-1.399838406148496,-1.2739119272713433,-0.05061753654628599,-0.01610512958528562,0.16285780224664012
75,-1.425316644693923,-1.148559623597172,-0.0509396391379917,-0.21876796117762765,0.03728074646043061
76,-1.4482878371658663,-1.1164432219652936,-0.05531499836154426,-0.2818498521816941,0.2533445796603428
77,-1.470616701605172,-1.3344861310816156,-0.060951995405178136,0.028459954089701367,0.005155185427923591
78,-1.4973064242268044,-1.3298429837351347,-0.06038279632338411,0.003599373663615787,0.051348545143200974
79,-1.523903283901507,-1.2913140309509004,-0.060310808850111794,-0.07183048394240381,0.027746527377488263
80,-1.549729564520525,-1.3113563599183484,-0.06174741852895987,-0.05954228072344439,0.015572800920386778
81,-1.5759566917188919,-1.3220321796626946,-0.06293826414342875,-0.06170127685135094,0.004227778519226126
82,-1.6023973353121457,-1.3242448770594184,-0.06417228968045577,-0.07688043808947162,0.251052459230559
83,-1.6288822328533341,-1.5077440990603233,-0.0657098984422452,0.17894813388217604,0.1377508811077791
84,-1.6590371148345406,-1.5963948883457872,-0.06213093576460168,0.2923325286382852,0.12375121344170767
85,-1.6909650126014564,-1.5192709360828458,-0.056284285191835974,0.15861507174342676,0.05037458953784269
86,-1.7213504313231134,-1.4859721490099782,-0.05311198375696744,0.09220714186280544,0.033426562140818676
87,-1.7510698743033128,-1.507216017719828,-0.05126784091971133,0.10842042769526126,0.13036844120917268
88,-1.7812141946577094,-1.5911295116090278,-0.049099432365806106,0.21905914336936438,0.17791181269407902
89,-1.8130367848898898,-1.7001833660114996,-0.04471824949841882,0.3680133542009573,0.09888068794970152
90,-1.8470404522101198,-1.6422536174484186,-0.03735798241439967,0.26806281540466737,0.004626567342126394
91,-1.8798855245590882,-1.6389522765506555,-0.03199672610630633,0.25213356694596367,0.07210598706918252
92,-1.9126645700901013,-1.5952747259984998,-0.026954054767387055,0.17724534333375008,0.09592734269528579
93,-1.9445700646100712,-1.5359291051345525,-0.023409147900712052,0.08033571437827394,0.0027524644274090873
94,-1.9752886467127622,-1.537346105526625,-0.02180243361314657,0.07557897168722946,0.1343750090838103
95,-2.0060355688232945,-1.6224968732716836,-0.020290854179401983,0.19686535976962166,0.09767519415875549
96,-2.038485506288728,-1.6812628482654641,-0.01635354698400955,0.2790310748069416,0.09429491295888111
97,-2.072110763254037,-1.7361622245913175,-0.010772925487870719,0.3565613993747027,0.06459557284648686
98,-2.1068340077458636,-1.6993688578852695,-0.003641697500376664,0.2982073730198128,0.00895220376668827
99,-2.140821384903569,-1.7044977372467018,0.0023224499600195923,0.3048299843491644,0.1566165514565417
100,-2.174911339648503,-1.6141529950819586,0.00841904964700288,0.169996036250648,0.24759614936660077
101,-2.207194399550142,-1.463904960025314,0.01181897037201584,-0.05289285779543282,0.1998657334911626
102,-2.2364724987506484,-1.5970538614311385,0.010761113216107183,0.15029124138427685,0.16667692629134376
103,-2.268413575979271,-1.4949516779801013,0.01376693804379272,0.00031054004041830563,0.030019710793604687
104,-2.2983126095388733,-1.5147399504348966,0.013773148844601086,0.03403748786850841,0.08617568675850533
105,-2.328607408547571,-1.5704972185106412,0.014453898601971254,0.12171463499395108,0.08462632391370005
106,-2.360017352917784,-1.5179484650455306,0.016888191301850274,0.04714903655556624,0.03613415970195416
107,-2.3903763222186947,-1.494934231481997,0.017831172032961598,0.017597501255687736,0.24672741697918207
108,-2.4202750068483345,-1.656289229292996,0.018183122058075353,0.2648336085711249,0.016181940123413827
109,-2.4534007914341944,-1.6469474542462077,0.02347979422949785,0.2561688057230761,0.18573836680090897
110,-2.4863397405191185,-1.536477165038799,0.028603170343959372,0.09741147182142001,0.10293605843083546
111,-2.5170692838198945,-1.6024325875534822,0.03055139978038777,0.20471232316624038,0.13463392427475293
112,-2.549117935570964,-1.6853112974448474,0.03464564624371258,0.3379530883206511,0.19703765665894024
113,-2.582824161519861,-1.570702379077792,0.0414047080101256,0.17632665846124806,0.08795419398816025
114,-2.614238209101417,-1.5163901687541441,0.04493124117935056,0.10709767192443342,0.052614965659610706
115,-2.6445660124764996,-1.5509882090818439,0.04707319461783923,0.172147696576004,0.025039604804334425
116,-2.6755857766581363,-1.535833107266227,0.05051614854935931,0.16327463433344383,0.3077541838128606
117,-2.706302438803461,-1.3401483714200009,0.05378164123602819,-0.11503259408568448,0.11734808562884061
118,-2.733105406231861,-1.4259955985809645,0.0514809893543145,0.02935624008166446,0.13096452163806624
119,-2.7616253182034805,-1.5163996043988097,0.05206811415594779,0.17991131692687995,0.0389675799529088
120,-2.7919533102914564,-1.491941786378458,0.055666340494485385,0.15857541874151448,0.09748100954994401
121,-2.8217921460190256,-1.4286977541406254,0.05883784886931567,0.08021376824294174,0.12100292154055638
122,-2.850366101101838,-1.512357965057662,0.060442124234174506,0.2227752787565181,0.004085767394989983
123,-2.8806132604029915,-1.5158722474751511,0.06489762980930487,0.2457962431991804,0.31158335435622025
124,-2.9109307053524947,-1.3148389248952712,0.06981355467328848,-0.036052431288284253,0.0014662225497167579
125,-2.9372274838504002,-1.314750261145021,0.06909250604752279,-0.01567658686360167,0.11913052148443387
126,-2.9635224890733007,-1.2274154712597818,0.06877897431025076,-0.12606916976026722,0.1543697534382417
127,-2.988070798498496,-1.3504868791511424,0.06625759091504542,0.07830654731337852,0.05173503837311798
128,-3.015080536081519,-1.3139730241101804,0.067823721861313,0.043121426480408814,0.008220067622661847
129,-3.0413599965637226,-1.3210526347287137,0.06868615039092117,0.07364131689507727,0.012827793674769395
130,-3.0677810492582966,-1.3315280781995456,0.07015897672882272,0.10949528466051792,0.02590613591537913
131,-3.0944116108222874,-1.3134841865252371,0.07234888242203308,0.10310585422348777,0.07382018150103162
132,-3.120681294552792,-1.3695228226381204,0.07441099950650283,0.20819592948798404,0.20117128991345637
133,-3.1480717510055545,-1.2263377909754016,0.07857491809626252,0.01586936976621864,0.05702167125280637
134,-3.1725985068250626,-1.1820899117338652,0.07889230549158689,-0.027220401863467768,0.013973183136190458
135,-3.19624030505974,-1.1947312645529045,0.07834789745431754,0.014852933226555065,0.18095402769966829
136,-3.220134930350798,-1.0480668482685094,0.07864495611884864,-0.18145810014522934,0.07480555034106261
137,-3.241096267316168,-1.1182476745597816,0.07501579411594406,-0.053414455964722746,0.12920890193346077
138,-3.263461220807364,-1.2317567551984854,0.07394750499664961,0.13840428581843178,0.22446975909939582
139,-3.2880963559113336,-1.0541821470399986,0.07671559071301824,-0.10550893551703819,0.10197637026933104
140,-3.3091799988521338,-1.1491858634376175,0.07460541200267748,0.0591097689930393,0.03421831598762484
141,-3.332163716120886,-1.1793571048211169,0.07578760738253827,0.12615438984180533,0.18323405373655438
142,-3.3557508582173083,-1.0281853970159922,0.07831069517937438,-0.07769203013766096,0.03744563603464759
143,-3.376314566157628,-1.0646967130652851,0.07675685457662115,-9.308170287287976e-05,0.09506535813372174
144,-3.397608500418934,-0.9787196314329571,0.0767549929425637,-0.10613461985395388,0.04726368287489812
145,-3.417182893047593,-1.0266776849701593,0.07463230054548463,-0.011865520843562988,0.02586123595370003
146,-3.4377164467469963,-1.003191588966752,0.07439499012861336,-0.02507506485121365,0.023552190184858348
147,-3.4577802785263314,-1.0271235918495363,0.0738934888315891,0.03257560152175725,0.019312940961014886
148,-3.478322750363322,-1.0098155656978016,0.07454500086202424,0.028389330383233505,0.03182806336669447
149,-3.498519061677278,-0.9801035187107696,0.07511278746968891,0.0058409719655252886,0.06039936067269417
150,-3.518121132051493,-0.9210623479109574,0.07522960690899942,-0.060408671923745175,0.0952080084380053
151,-3.5365423790097124,-0.8216304860869663,0.07402143347052452,-0.18703796514978105,0.03546870014150341
152,-3.5529749887314517,-0.8643541336443286,0.0702806741675289,-0.10138554769456755,0.01618015283950228
153,-3.570262071404338,-0.8835172902413182,0.06825296321363754,-0.05206626164484305,0.15264219885052643
154,-3.5879324172091644,-0.716446346884936,0.06721163798074067,-0.28203838733361114,0.056245315944869326
155,-3.6022613441468634,-0.7926245259387681,0.06157087023406845,-0.14828376988989933,0.04889962926627277
156,-3.618113834665639,-0.8531692177311856,0.05860519483627047,-0.03954841949462817,0.016017628288048286
157,-3.6351772190202625,-0.8357341527255135,0.0578142264463779,-0.048436052327248534,0.0304993960298916
158,-3.6518919020747727,-0.8720630791737516,0.056845505399832935,0.02295420628880484,0.13172799415379785
159,-3.669333163658248,-0.725365882405913,0.05730458952560903,-0.1800325761643516,0.1589354388230771
160,-3.683840481306366,-0.9375186443594545,0.053703938002321996,0.15451253688715588,0.0866515521194946
161,-3.702590854193555,-0.8474533467227795,0.056794188740065116,0.035390731826368566,0.13554743927819637
162,-3.7195399211280105,-0.6919607560240914,0.05750200337659249,-0.18078357357321811,0.04510502292572612
163,-3.7333791362484923,-0.75561567674451,0.05388633190512813,-0.06856273011263093,0.0971331599192095
164,-3.7484914497833826,-0.631514457037844,0.05251507730287551,-0.23860944153066294,0.06894887342687722
165,-3.7611217389241394,-0.7369630437764471,0.047742888472262254,-0.06522228138172786,0.017450644211349457
166,-3.775860999799668,-0.7606516923094366,0.0464384428446277,-0.01569872009920225,0.014055427297260205
167,-3.791074033645857,-0.7433088794303809,0.04612446844264365,-0.028036898670614964,0.016321057901437598
168,-3.8059402112344642,-0.7653511023412357,0.04556373046923135,0.018547057309554103,0.04633635888130536
169,-3.821247233281289,-0.7068814758315828,0.04593467161542243,-0.055675256453392406,0.09476832269461948
170,-3.8353848627979206,-0.8378483400553485,0.044821166486354584,0.15406786662663632,0.09631528560040625
171,-3.8521418295990277,-0.7254097494984659,0.04790252381888731,-0.0012476247494108972,0.03687955509698999
172,-3.866650024588997,-0.6765081413087907,0.04787757132389909,-0.06043793744398281,0.051137556054758525
173,-3.880180187415173,-0.6037568965702947,0.04666881257501943,-0.1553691258283385,0.08239434195623752
174,-3.8922553253465786,-0.736006134478179,0.043561430058452665,0.05650439418500969,0.0470437157182064
175,-3.906975448036142,-0.7991979267948328,0.044691517942152856,0.1640051727867582,0.09507775286290851
176,-3.922959406572039,-0.6826973668050154,0.04797162139788802,0.0025637542454011175,0.004068535778768596
177,-3.936613353908139,-0.6775700181878721,0.04802289648279604,0.008979827118890997,0.04122798191344641
178,-3.9501647542718965,-0.6188690813730604,0.04820249302517386,-0.06485676017623557,0.03218941688227348
179,-3.9625421358993576,-0.6700547768552659,0.04690535782164915,0.02599864930591346,0.020127374340210582
180,-3.975943231436463,-0.6413735873417188,0.047425330807767424,-0.0031906981566138456,0.07494991930814877
181,-3.988770703183297,-0.528088854372047,0.047361516844635146,-0.15898891548822977,0.05956192369594744
182,-3.999332480270738,-0.6373008040510355,0.04418173853487055,0.01856439320201883,0.043747441069487684
183,-4.012078496351759,-0.5708837509791072,0.04455302639891093,-0.06797876076983163,0.024512979988792268
184,-4.023496171371341,-0.61318158845197,0.043193451183514295,0.008499292634522732,0.06267894621643647
185,-4.0357598031403805,-0.7135754627478547,0.04336343703620475,0.17164457557534005,0.08333814090254625
186,-4.050031312395338,-0.5990118044800019,0.046796328547711555,0.012705486326292842,0.06935184937072743
187,-4.0620115484849375,-0.48663778097141,0.04705043827423741,-0.1419179173500734,0.00880473092617036
188,-4.0717443041043655,-0.504728709547756,0.04421207992723594,-0.1009838297603459,0.0057236144480848515
189,-4.08183887829532,-0.4943992050241874,0.042192403332029026,-0.1034688283895128,0.012913214861878658
190,-4.091726862395804,-0.5202418188867572,0.04012302676423877,-0.05233851974732212,0.018511744712236395
191,-4.1021316987735394,-0.5553695634944588,0.03907625636929233,0.012103694960831274,0.03943080901880255
192,-4.113239090043429,-0.6252577653442525,0.03931833026850896,0.12834146675873667,0.028680325926217633
