,X,v,theta,theta_dot,energy
0,0.0,2.0,0.0,0.0,0.07183211807342273
1,0.04,2.0350400580138697,0.0,-0.05256008702080424,0.22556015561224946
2,0.08070080116027739,2.143301977616985,-0.0010512017404160849,-0.214952966425477,0.06773326557590494
3,0.12356684071261709,2.1742897052330097,-0.005350261068925625,-0.2617435854226175,0.08976822899072806
4,0.16705263481727728,2.1338653024736756,-0.010585132777377975,-0.2026808184016296,0.0648110211922981
5,0.20972994086675079,2.1042566424540587,-0.014638749145410567,-0.16138228739881122,0.14290980180695775
6,0.25181507371583195,2.17095506495646,-0.017866394893386792,-0.2657228401295485,0.03379397737593627
7,0.29523417501496113,2.1864813364972373,-0.023180851695977764,-0.2942609711075963,0.08878452787996859
8,0.33896380174490587,2.2266696063292373,-0.02906607111812969,-0.3613417402064985,0.09629431831663038
9,0.3834971938714906,2.1845806472374925,-0.03629290592225966,-0.306779190119492,0.07679709059127098
10,0.4271888068162405,2.219610871626987,-0.0424284897246495,-0.36995769689371816,0.026045083251272864
11,0.47158102424878023,2.2317465458779924,-0.04982764366252386,-0.4006150597148094,0.11943085256359018
12,0.5162159551663401,2.179823426882118,-0.05783994485682005,-0.3374703131395943,0.16811410006738156
13,0.5598124237039824,2.104888995126919,-0.06458935111961193,-0.24225209447593687,0.27057861431065966
14,0.6019102036065208,1.979776751124666,-0.06943439300913068,-0.07395111716551409,0.19270848986622888
15,0.6415057386290142,2.0758606314475845,-0.07091341535244096,-0.23812696481740783,0.028978221837218522
16,0.6830229512579659,2.0631846324642855,-0.07567595464878911,-0.2399918292280391,0.06910695865396589
17,0.7242866439072516,2.0970988604462626,-0.08047579123334989,-0.3129450753189331,0.18279408144778928
18,0.7662286211161768,2.0126623090825024,-0.08673469273972854,-0.21033451025730543,0.06314265707739936
19,0.8064818672978269,2.0446317142454675,-0.09094138294487465,-0.2835763932443997,0.14760844522175287
20,0.8473745015827362,1.9750863870665312,-0.09661291080976264,-0.20638940578280818,0.03525628153806106
21,0.8868762293240668,1.9589724842741498,-0.1007406989254188,-0.21069129858958324,0.05636671850425725
22,0.9260556790095499,1.9322139510198988,-0.10495452489721047,-0.20032469351429827,0.23070519886564758
23,0.9646999580299479,1.8167611235927459,-0.10896101876749643,-0.05889841251929803,0.01462354061678213
24,1.0010351805018027,1.8261673714213014,-0.1101389870178824,-0.10489529908434342,0.15790751822347254
25,1.0375585279302288,1.7432265046690067,-0.11223689299956927,-0.01355326344942255,0.18410905170895
26,1.072423058023609,1.6418414963044499,-0.11250795826855772,0.10463897391434537,0.035704206632355004
27,1.105259887949698,1.6223031300850173,-0.11041517879027081,0.10075362924708403,0.06819838697244128
28,1.1377059505513982,1.6647329448101178,-0.10840010620532912,0.0051003333613511,0.13035035260994354
29,1.1710006094476006,1.7425894327631684,-0.1082980995381021,-0.1428061792702796,0.0586423375939982
30,1.205852398102864,1.7112015138367977,-0.11115422312350769,-0.12777756985822147,0.1102139942819134
31,1.2400764283796,1.7757717373241642,-0.11370977452067212,-0.256647273920911,0.07698150008844996
32,1.2755918631260832,1.7348482902831432,-0.11884271999909034,-0.22901720604382314,0.1790114834797779
33,1.310288828931746,1.6353607597692454,-0.1234230641199668,-0.11569608341810697,0.06834313151115902
34,1.342996044127131,1.5962525858535568,-0.12573698578832893,-0.09367438855385041,0.14479788429311274
35,1.374921095844202,1.6866652446966999,-0.12761047355940594,-0.26509207955371855,0.40326042856916916
36,1.4086544007381359,1.453822698869558,-0.1329123151504803,0.04391607762923688,0.13126373506885888
37,1.437730854715527,1.3678499222515006,-0.13203399359789555,0.13277657167481471,0.04688096430431819
38,1.465087853160557,1.4029666459546413,-0.12937846216439927,0.041854654364253285,0.023552199732002208
39,1.4931471860796497,1.3884629486882576,-0.1285413690771142,0.02549713301797306,0.012828902653475104
40,1.520916445053415,1.399279923723639,-0.12803142641675472,-0.028281646909575207,0.0009782097044790617
41,1.5489020435278877,1.4004119797475867,-0.12859705935494622,-0.06750431987349084,0.10536808323823935
42,1.5769102831228394,1.328756169140232,-0.12994714575241603,0.001388463657499811,0.07111530266989885
43,1.603485406505644,1.3827449327290566,-0.12991937647926605,-0.11700892194812025,0.13244660489060445
44,1.6311403051602251,1.2908915717325742,-0.13225955491822844,-0.01847897801736617,0.08131809884179136
45,1.6569581365948767,1.2313450718630128,-0.13262913447857577,0.03128964932889756,0.005224122496822155
46,1.6815850380321369,1.2290932927457605,-0.13200334149199783,-0.004241094387821338,0.034870927179728756
47,1.7061669038870522,1.2033135918863398,-0.13208816337975426,-0.00460433391984009,0.11659257793240786
48,1.7302331757247789,1.1107574601516432,-0.13218025005815107,0.09429938971627991,0.11610741012464434
49,1.7524483249278118,1.2140904047673056,-0.13029426226382546,-0.09809588375467318,0.21440670778699852
50,1.776730133023158,1.0432268055955185,-0.13225617993891892,0.11782886005155699,0.06930450682030857
51,1.7975946691350684,1.1094996929624497,-0.12989960273788778,-0.0194823787387991,0.01299188487822477
52,1.8197846629943173,1.0999203449199781,-0.13028925031266375,-0.0433175870796674,0.05472580333934625
53,1.841783069892717,1.0531981577740315,-0.1311556020542571,-0.012025065685642829,0.02587557833100742
54,1.8628470330481974,1.0311035757417761,-0.13139610336796997,-0.017617126649898063,0.017748350037012958
55,1.883469104563033,1.0161790033092517,-0.13174844590096793,-0.033942635546662644,0.08656866314661092
56,1.903792684629218,0.9349113184059449,-0.1324272986119012,0.04828037406999726,0.07005968410254615
57,1.9224909109973367,1.0096325572346057,-0.13146169113050124,-0.1016400595183304,0.1284788561219806
58,1.9426835621420289,1.1360510330099098,-0.13349449232086785,-0.3281700499937661,0.11527231673039465
59,1.965404582802227,1.0377589186410328,-0.14005789332074317,-0.22117457494035142,0.2067401891909864
60,1.9861597611750477,0.843770487158403,-0.1444813848195502,0.025916215998689568,0.0113725167744115
61,2.0030351709182157,0.8326992124116118,-0.1439630604995764,2.0200034682490986e-05,0.004105743879822148
62,2.0196891551664478,0.8395355286078156,-0.14396265649888276,-0.052307284381654905,0.06408671143518832
63,2.0364798657386043,0.7669972504708135,-0.14500880218651585,0.013195575549929887,0.04243174445646024
64,2.051819810748021,0.7151961238602589,-0.14474489067551724,0.047598422771072894,0.07274175085538659
65,2.066123733225226,0.6184581121682956,-0.1437929222200958,0.14878145988746364,0.06802700732710827
66,2.078492895468592,0.7264891838218157,-0.14081729302234652,-0.05372234830941236,0.10240049797322007
67,2.093022679145028,0.5907036233679255,-0.14189173998853477,0.10667631114434051,0.06727552269051927
68,2.1048367516123867,0.48265101105766395,-0.13975821376564795,0.22555004428850586,0.02260965121155151
69,2.11448977183354,0.5293165349631572,-0.13524721287987784,0.11527897738442087,0.020264005855963708
70,2.125076102532803,0.4942907196636229,-0.13294163333218942,0.1276963486949975,0.04099060972383102
71,2.1349619169260756,0.41629856317021247,-0.13038770635828947,0.20468249622909163,0.000976025621454986
72,2.1432878881894797,0.41590481492084347,-0.12629405643370764,0.16704264623105,0.005840376694198405
73,2.1516059844878965,0.40425063637062963,-0.12295320350908664,0.14735285951202098,0.0023275783567023585
74,2.1596909972153093,0.4115120946543877,-0.12000614631884622,0.10048566748522933,0.005565198766536036
75,2.1679212391083973,0.40017728272831,-0.11799643296914164,0.0821684207587472,0.04016455127753111
76,2.1759247847629637,0.30493004436089993,-0.1163530645539667,0.18943531895575483,0.019346934044191414
77,2.1820233856501816,0.24642680927955926,-0.1125643581748516,0.24246615845982505,0.025945962151653883
78,2.1869519218357727,0.1497615387972778,-0.10771503500565509,0.3535223405509759,0.007450395175868145
79,2.1899471526117185,0.10746211340391604,-0.10064458819463556,0.3849967319366001,0.007248353428885285
80,2.1920963948797967,0.16546527730726646,-0.09294465355590356,0.26889268371955966,0.0101651330835904
81,2.195405700425942,0.11099017215580251,-0.08756679988151236,0.32296624756774334,0.006243828750784939
82,2.1976255038690584,0.16069535844820412,-0.08110747493015749,0.22298238760592706,0.002865536018083186
83,2.2008394110380225,0.17820912356242036,-0.07664782717803895,0.17297864045980657,0.010269958901232631
84,2.2044035935092707,0.12547072355403752,-0.07318825436884281,0.2293415769207935,0.0030880100514986382
85,2.2069130079803516,0.10434763184718823,-0.06860142283042694,0.23944325040365985,0.0034944735134956567
86,2.2089999606172954,0.13490622747274839,-0.06381255782235375,0.17356017235606763,0.01785495496656958
87,2.2116980851667503,0.25778252672533636,-0.060341354375232394,-0.029127297776798594,0.015816939808694582
88,2.2168537357012568,0.19849191835487917,-0.06092390033076837,0.04191715808502197,0.00961955180045957
89,2.2208235740683544,0.15254341719927694,-0.06008555716906793,0.09281149008538189,0.004976840237828391
90,2.22387444241234,0.18436900304645343,-0.05822932736736029,0.02750473332496814,0.003980694937498717
91,2.227561822473269,0.16428447955084197,-0.05767923270086093,0.040470708692404225,0.007656368696872314
92,2.230847512064286,0.12015551842823556,-0.056869818527012846,0.0896057783851872,0.0012576942181067596
93,2.2332506224328506,0.11109343593469002,-0.055077702959309104,0.0864662110897118,0.0168656771354052
94,2.2354724911515444,-0.031145845375234196,-0.05334837873751487,0.2833169380826753,0.0001679313381058753
95,2.23484957424404,-0.03934514212536442,-0.047682039975861366,0.2799214010217575,0.002301034809733015
96,2.234062671401533,0.04560647753573075,-0.04208361195542622,0.13862559379286973,0.0038444861311007117
97,2.2349748009522474,0.11846388478702785,-0.039311100079568825,0.01706731294445067,0.013612066713511157
98,2.237344078647988,0.007666163362254327,-0.03896975382067981,0.17158100771993584,0.00029181572609242963
99,2.237497401915233,-0.010189945241108615,-0.03553813366628109,0.18689062745527582,1.5265763765886006e-05
100,2.2372936030104107,-0.0009205728805957748,-0.031800321117175574,0.16254933595823953,0.00039387015227491213
101,2.237275191552799,-0.05990186054312882,-0.028549334398010783,0.24162881841406963,0.006836119113488634
102,2.2360771543419364,0.07682309763874068,-0.02371675802972939,0.028232591057124723,0.005848869237001899
103,2.2376136162947113,0.004108813490834834,-0.023152106208586896,0.1303012700135679,9.494561895927371e-05
104,2.237695792564528,0.013675084109002448,-0.020546080808315537,0.109149598546984,0.0001965508735893093
105,2.2379692942467084,0.024258975861904206,-0.018363088837375856,0.08723698895184087,0.002399079542320576
106,2.2384544737639467,0.1074491955597581,-0.01661834905833904,-0.04292574690135209,0.018113553947447684
107,2.240603457675142,-0.05981668756328537,-0.017476863996366082,0.20305286353420593,0.006986739558828949
108,2.2394071239238764,0.07517192807838535,-0.013415806725681963,-0.0045370738945750555,0.008318563547950625
109,2.240910562485444,-0.03289270917102442,-0.013506548203573464,0.1536011659180018,0.003988683046125899
110,2.2402527083020236,0.11747992318577526,-0.010434524885213427,-0.07590801336542621,0.004140552047640667
111,2.2426023067657392,0.08220426997203145,-0.011952685152521951,-0.026065108757715796,0.003149299988120032
112,2.24424639216518,0.04445327864933441,-0.012473987327676267,0.027043327494267314,0.002526469569543741
113,2.2451354577381664,0.09858768839330254,-0.01193312077779092,-0.05781922687156203,0.011495029353182272
114,2.2471072115060324,-0.01810842121848867,-0.01308950531522216,0.1137042203594328,0.00013746659406877363
115,2.2467450430816625,-0.007557074037890337,-0.010815420908033505,0.094030350759969,0.00018979087767516674
116,2.2465939016009044,0.04899461026917279,-0.008934813892834126,0.006028113773460658,0.00437280316198823
117,2.247573793806288,-0.037466363235097666,-0.008814251617364913,0.13308759703715717,0.003671944543075807
118,2.246824466541586,0.07668583999018624,-0.0061524996766217695,-0.04072541281302189,0.005906628060654989
119,2.2483581833413897,-0.00022959773877333223,-0.006967007932882207,0.07283673666947027,4.96111754147197e-06
120,2.248353591386614,-0.0017006203445815403,-0.005510273199492802,0.07299493326487319,2.338342268400289e-05
121,2.2483195789797223,-0.015727322530643555,-0.004050374534195338,0.09241465500152006,0.0002655710128522472
122,2.2480050325291097,0.006808444526790917,-0.0022020814341649365,0.05742047484137971,0.0013402014254721034
123,2.2481412014196454,0.1456644959998131,-0.0010536719373373422,-0.15151050878508485,0.0013697205622995945
124,2.2510544913396417,0.13605042238662185,-0.004083882113039039,-0.13739918586288902,0.015199371018380202
125,2.2537754997873742,0.021871208304111767,-0.006831865830296819,0.03266754904040872,0.000661225537489458
126,2.2542129239534563,-0.005650880914084298,-0.006178514849488644,0.07194116650953271,1.728274641047778e-05
127,2.2540999063351745,0.0015196096868522286,-0.00473969151929799,0.0593691640937668,2.2240556098423146e-05
128,2.254130298528912,0.006731501090476529,-0.003552308237422654,0.05015795071138012,0.00028661991408472534
129,2.2542649285507212,-0.024248147628751528,-0.0025491492231950515,0.09558275416853751,0.0022124660531356996
130,2.253779965598146,0.0842368680097379,-0.0006374941398243014,-0.06789368963454281,0.004260365403528212
131,2.255464702958341,0.13546490259328894,-0.0019953679325151576,-0.1449231491600255,0.0057388342891191175
132,2.2581740010102065,0.092050209299401,-0.004893830915715667,-0.08038787664350659,0.006379642524385293
133,2.2600150051961947,0.021709807713891,-0.0065015884485858,0.023682681723746893,0.0005070254871191478
134,2.2604492013504727,0.043511618227387944,-0.006027934814110862,-0.01093079640378837,0.0008701487512314768
135,2.2613194337150206,0.023862440592132966,-0.006246550742186629,0.016770232468506556,0.0032979532152238823
136,2.2617966825268634,-0.10670966925750547,-0.005911146092816498,0.2107881021465955,0.007853150906995662
137,2.2596624891417134,-0.027744152196029992,-0.001695384049884588,0.09060402910674875,3.886672586807853e-06
138,2.2591076060977926,-0.027559354258988502,0.0001166965322503869,0.08982838992767893,0.0018500510081156962
139,2.2585564190126126,0.049322117479008276,0.0019132643308039654,-0.025459508113678947,0.00228566846943243
140,2.259542861362193,0.002997038734289907,0.0014040741685303864,0.04459048219100817,0.00013468066038594274
141,2.259602802136879,0.029131167134249642,0.00229588381235055,0.0058021259020681615,0.0014877664948755426
142,2.260185425479564,-0.02028035745854893,0.002411926330391913,0.08059420670002902,0.0008136769113243465
143,2.2597798183303928,0.027457265628061663,0.004023810464392493,0.009697086004852126,0.00015053278876453198
144,2.260328963642954,0.02213535096825954,0.004217752184489536,0.01886289045329788,6.054997026928367e-05
145,2.2607716706623195,0.024644068749208957,0.004595009993555493,0.016339862719028733,0.0007871860823739424
146,2.2612645520373036,0.0548295546469431,0.004921807247936068,-0.027586959939355418,0.00451964343932979
147,2.2623611431302426,-0.02754340429470585,0.00437006804914896,0.09741798740148203,0.00046095412311544304
148,2.2618102750443483,-0.04706108056254491,0.006318427797178601,0.12797901816668888,0.00018880227879981013
149,2.2608690534330975,-0.04268556800049846,0.008878008160512377,0.12327348574659312,0.004123235940689748
150,2.2600153420730877,0.06566549069068728,0.011343477875444239,-0.036636597127053375,0.0003887999462101318
151,2.2613286518869016,0.07142958464127815,0.010610745932903171,-0.04194727081537077,0.0014116355855268196
152,2.262757243579727,0.05146825290255675,0.009771800516595756,-0.008887457978079154,0.0012322772490005137
153,2.2637866086377785,0.027784993695736275,0.009594051357034174,0.02950859837450273,0.00043720521203852863
154,2.264342308511693,0.013002927378102928,0.01018422332452423,0.054501285215845255,0.0015183384592350837
155,2.264602367059255,0.1085470578608784,0.011274249028841134,-0.0858133684095604,0.0007995700522496101
156,2.2667733082164725,0.1009312271796411,0.009557981660649927,-0.07107578941348791,0.0005878552396397722
157,2.2687919327600654,0.09492409825865082,0.008136465872380169,-0.05925550379175764,0.004981565916148057
158,2.2706904147252382,0.14750181373984717,0.006951355796545016,-0.13572737188981074,0.007196127005175238
159,2.273640451000035,0.19707651080406086,0.004236808358748801,-0.20804393871106724,0.0026767439797261063
160,2.277581981216116,0.1830970810212427,7.592958452745657e-05,-0.18582936430946917,0.030203405185446074
161,2.281243922836541,0.01437751131927531,-0.0036406577016619267,0.0672723128117721,0.0023152734144297033
162,2.2815314730629264,0.14398281515293945,-0.002295211445426485,-0.12820470556067093,0.003454304755643527
163,2.284411129365985,0.11962248962817565,-0.004859305556639904,-0.09233910509353685,0.0032121917478009927
164,2.2868035791585486,0.09254177011174324,-0.006706087658510641,-0.05314713561897845,0.003189190011777228
165,2.2886544145607837,0.12716062248480342,-0.007769030370890211,-0.10704582152779568,0.014095698144448263
166,2.29119762701048,0.0148239431999974,-0.009909946801446124,0.05917004017416244,0.00022056867812993462
167,2.29149410587448,0.02725305595848289,-0.008726545997962874,0.0376138098270187,4.9012532903477806e-05
168,2.2920391669936495,0.025727209127824346,-0.0079742698014225,0.03733692096503752,1.536032058602292e-05
169,2.292553711176206,0.025295120035117358,-0.00722753138212175,0.03564062352213986,0.0002977270451570293
170,2.2930596135769084,0.036190627514664994,-0.006514718911678952,0.01717291343750894,0.0027827206009775167
171,2.2937834261272014,0.10971529386497278,-0.006171260642928773,-0.09502705953175333,0.00010455506126997617
172,2.2959777320045007,0.10883591902809205,-0.00807180183356384,-0.09552236150685428,0.004166204164892428
173,2.2981544503850624,0.07005402699539269,-0.009982249063700925,-0.039724502513179084,0.0030535387291997416
174,2.2995555309249704,0.026547236039479255,-0.010776739113964507,0.022597700026934224,0.0015786721263910412
175,2.30008647564576,-0.029152854971356647,-0.010324785113425822,0.10297468494089237,0.0007208150106284133
176,2.299503418546333,-0.0002693071296024363,-0.008265291414607974,0.056616239530573036,9.150739641610208e-05
177,2.299498032403741,0.03859567616340598,-0.0071329666239965134,-0.004109212131492859,0.0015153978450553592
178,2.300269945927009,0.0002060712828829761,-0.0072151508666263705,0.05137665586641053,0.00016534971383094893
179,2.3002740673526665,0.06378681200755451,-0.00618761774929816,-0.0461132087475287,0.0010797490026076978
180,2.3015498035928177,0.04679988361981298,-0.007109881924248734,-0.02245245195340266,0.0009938172075941553
181,2.302485801265214,0.06808113630191326,-0.007558930963316788,-0.05646381182254534,0.0040024195305963075
182,2.3038474239912525,0.008587864916976932,-0.008688207199767695,0.030551241256923975,0.00017836951603014656
183,2.304019181289592,-0.008730331525006279,-0.008077182374629215,0.05397325469750527,0.00016212320746677525
184,2.303844574659092,0.016583253094198683,-0.00699771728067911,0.013629450575208098,0.00012181027141146686
185,2.304176239720976,0.023591734015206187,-0.006725128269174948,0.001059674496366762,0.00037929500206959507
186,2.30464807440128,0.00803486876472195,-0.006703934779247613,0.02241727186989273,3.043331375685683e-06
187,2.3048087717765746,0.008458944980568494,-0.006255589341849759,0.019810229778665412,0.00041932612223356943
188,2.304977950676186,0.05225848324967848,-0.005859384746276451,-0.04772692341498122,0.0007682419569282214
189,2.3060231203411794,0.03737912177081319,-0.006813923214576075,-0.02713091358686854,0.004321964978107127
190,2.306770702776596,-0.07917632142035749,-0.0073565414863134455,0.14569491457992587,0.002846626391106339
