,X,v,theta,theta_dot,energy
0,0.0,2.0,0.3490658503988659,0.0,1.2
1,0.04,2.5758278839721624,0.3490658503988659,-0.7110978979793615,1.2931088006791365
2,0.09151655767944325,3.0628504756728816,0.33484389243927865,-1.2970212792074058,1.7110639527658145
3,0.1527735671929009,3.6097791008209894,0.30890346685513054,-1.9752361329517425,1.7248932640999477
4,0.22496914920932068,4.08116358233032,0.26939874419609566,-2.5594649779698404,0.31788113602869145
5,0.3065924208559271,4.156944245177255,0.21820944463669886,-2.5907873208517147,0.643372725976596
6,0.3897313057594722,4.000553056212212,0.16639369821966457,-2.298117707493038,0.05757688684633496
7,0.4697423668837164,3.984682119598687,0.12043134406980381,-2.225945784712974,0.19626333457985673
8,0.5494360092756901,3.9343067771214195,0.07591242837554432,-2.115608792134873,0.6683768472925377
9,0.6281221448181186,3.7637385365205964,0.033600252532846854,-1.8381964525056005,0.9267614055898901
10,0.7033969155485305,3.517706372719093,-0.0031636765172651585,-1.4594798951019476,0.6754831753322077
11,0.7737510430029123,3.3268048421369087,-0.032353274419304114,-1.1740591516004395,0.2713866673306894
12,0.8402871398456505,3.246348883179572,-0.05583445745131291,-1.0629485730352068,0.1434386801824684
13,0.905214117509242,3.2908330458959614,-0.07709342891201704,-1.1459776377648536,0.2804284693525213
14,0.9710307784271612,3.2074034482705236,-0.10001298166731411,-1.0438479716992868,0.800572439743651
15,1.0351788473925718,2.961753964143228,-0.12088994110129984,-0.70656988145147,0.45517305225443855
16,1.0944139266754365,2.8120061336475146,-0.13502133873032923,-0.5190426273559047,0.5118138161739175
17,1.1506540493483868,2.635059816266363,-0.14540219127744733,-0.2956146454623876,0.25409419220518087
18,1.203355245673714,2.54269216427743,-0.15131448418669508,-0.20112297680838004,0.1528002148172674
19,1.2542090889592625,2.4860802064883063,-0.15533694372286266,-0.1614922220482988,0.11411659353257785
20,1.3039306930890286,2.5330996477435894,-0.15856678816382863,-0.27665779501751375,0.5916683805358207
21,1.3545926860439004,2.306736991180287,-0.1640999440641789,0.012202954326378801,0.1758560504416879
22,1.4007274258675062,2.234829998270624,-0.16385588497765133,0.0705852801806579,0.07170967247848231
23,1.4454240258329187,2.2683324765071355,-0.16244417937403818,-0.026953672869964168,0.20912276885884948
24,1.4907906753630615,2.180797153317985,-0.16298325283143747,0.05507187674005025,0.2670494774938646
25,1.5344066184294212,2.063984857740899,-0.16188181529663648,0.1802630392866995,0.2305644488728912
26,1.575686315584239,2.1746090973211114,-0.1582765545109025,-0.03088947963774974,0.32123005092236345
27,1.6191784975306613,2.0328911830140437,-0.1588943441036575,0.13269100223937966,0.16485320564400902
28,1.6598363211909422,1.9563852706047729,-0.1562405240588699,0.19948562071204573,0.16387128525908526
29,1.6989640266030377,2.039782646313884,-0.15225081164462897,0.030165264092058663,0.15220750268314343
30,1.7397596795293153,1.9692999081172584,-0.15164750636278782,0.09007737068636634,0.17293970798610744
31,1.7791456776916605,1.8860791208784244,-0.1498459589490605,0.1690622519179345,0.1347482605296747
32,1.816867260109229,1.957496791449345,-0.14646471391070182,0.019246165600079468,0.05861709820569519
33,1.856017195938216,1.9887203371415596,-0.14607979059870022,-0.06999453223248574,0.179826698587942
34,1.895791602681047,1.9025608256139,-0.14747968124334992,0.01507337085552532,0.19082770373556154
35,1.933842819193325,1.8069771048912846,-0.1471782138262394,0.11369052939395953,0.11258601058378777
36,1.9699823612911507,1.8695722611608248,-0.14490440323836024,-0.022301461625299016,0.18197888632631912
37,2.007373806514367,1.7767489062490178,-0.1453504324708662,0.07302138419788723,0.10847188907407312
38,2.0429087846393474,1.8381610127398835,-0.14389000478690847,-0.06070812660862615,0.46190875385888047
39,2.079672004894145,1.5950372434042952,-0.145104167319081,0.25805091566999905,0.16061168378134236
40,2.1115727497622307,1.6944564029775027,-0.139943149005681,0.06797831482089467,0.009320151882126539
41,2.1454618778217807,1.6910849129040098,-0.1385835827092631,0.031976985056941354,0.12167529132246266
42,2.179283576079861,1.623005564332493,-0.13794404300812427,0.09250367519499673,0.008104569728339006
43,2.211743687366511,1.6201024597516294,-0.13609396950422434,0.056389914281472574,0.05054361127030272
44,2.244145736561544,1.652375573728489,-0.1349661712185949,-0.03146036504135131,0.033877844603307235
45,2.2771932480361134,1.634291977273862,-0.1355953785194219,-0.044141348098384235,0.19055531843572393
46,2.309879087581591,1.5224693554001274,-0.1364782054813896,0.08230996581387037,0.12685685790558704
47,2.3403284746895934,1.6053826115491723,-0.13483200616511218,-0.0809035859834474,0.09602131158827137
48,2.3724361269205767,1.5488807793335062,-0.13645007788478114,-0.036440669818378894,0.023624348767280926
49,2.403413742507247,1.5359345278001746,-0.1371788912811487,-0.057193746854408645,0.13914286088060004
50,2.43413243306325,1.4494646324856677,-0.1383227662182369,0.03108839022419263,0.02544778102507693
51,2.4631217257129636,1.4685084954831322,-0.13770099841375302,-0.037741898418863495,0.18826634485592578
52,2.492491895622626,1.3454075626426072,-0.1384558363821303,0.10480535110043987,0.027838821592261444
53,2.5194000468754782,1.3674522430603624,-0.1363597293601215,0.031478687522546026,0.048652379748559633
54,2.5467490917366855,1.334752644901709,-0.13573015560967058,0.04010714138060292,0.09270621036148943
55,2.5734441446347196,1.2690930481140053,-0.13492801278205852,0.09790845597833878,0.18497041052797958
56,2.5988260055969996,1.4125162883983142,-0.13296984366249173,-0.15481962710716599,0.14388780661736597
57,2.627076331364966,1.314648801522231,-0.13606623620463504,-0.0482923155097125,0.09797762347996261
58,2.6533693073954105,1.2438408863300303,-0.1370320825148293,0.017057718724821008,0.038252702396885115
59,2.678246125122011,1.2158347298372756,-0.13669092814033287,0.018511684193167004,0.07847035000835341
60,2.702562819718757,1.2806057172065448,-0.13632069445646952,-0.1178006577346781,0.17276622993206675
61,2.7281749340628876,1.1505438446514762,-0.13867670761116307,0.03552795127509151,0.10857604935118303
62,2.751185810955917,1.244315810676152,-0.13796614858566125,-0.1444200496643814,0.189346022343494
63,2.77607212716944,1.097233164903391,-0.14085454957894888,0.03367400732695974,0.09055835057084023
64,2.798016790467508,1.0189300862932622,-0.14018106943240968,0.10869096013542746,0.009022497775823061
65,2.818395392193373,1.0123244624569778,-0.13800725022970114,0.07742381259968481,0.07208211496555957
66,2.8386418814425127,1.08340886644254,-0.13645877397770745,-0.06863445708338933,0.0404113311742411
67,2.8603100587713635,1.0488932836258231,-0.13783146311937525,-0.057336857745750855,0.10919929791721328
68,2.88128792444388,0.9491619686165526,-0.13897820027429025,0.050447110100806006,0.08371979678305437
69,2.9002711638162113,1.036853255113339,-0.13796925807227414,-0.12054973346022237,0.16276091816486551
70,2.921008228918478,0.8850621536208994,-0.14038025274147858,0.06453889290967514,0.12007275146682478
71,2.938709471990896,0.7553104008119444,-0.13908947488328507,0.21611557021852723,0.023670218177561313
72,2.9538156800071347,0.787413191459179,-0.13476716347891454,0.12766584292709265,0.006406711741703895
73,2.9695639438363184,0.7971879799701265,-0.1322138466203727,0.07363488815588551,0.09208756618678138
74,2.985507703435721,0.6869706493903588,-0.130741148857255,0.1987602742969189,0.05113361341272234
75,2.999247116423528,0.7604111229886326,-0.1267659433713166,0.05121123916181247,0.03169593748102478
76,3.014455338883301,0.7217117966919836,-0.12574171858808036,0.07162499004062586,0.01684387019413281
77,3.0288895748171405,0.7008514686162457,-0.12430921878726785,0.0657977158791081,0.04421515394120646
78,3.0429066041894655,0.6413928034483147,-0.12299326446968568,0.11784464143154819,0.046345665151597853
79,3.0557344602584315,0.5732964140655425,-0.12063637164105472,0.18314868968257986,0.03157236064321956
80,3.0672003885397423,0.5220953813220321,-0.11697339784740311,0.2240109349880377,0.009104069728394868
81,3.077642296166183,0.5404226252186406,-0.11249317914764236,0.16239612338265103,0.019998528033256822
82,3.088450748670556,0.5776044366581754,-0.10924525667998933,0.07397264425910137,0.020208061399515496
83,3.1000028374037196,0.6130635925226332,-0.1077658037948073,-0.010953271752769875,0.027981727503902494
84,3.112264109254172,0.5700683477394617,-0.1079848692298627,0.021543608059922725,0.08306237270328759
85,3.1236654762089615,0.4298143266491968,-0.10755399706866424,0.19901334517105176,0.06478858942615959
86,3.1322617627419453,0.28741588072691526,-0.10357373016524321,0.37981682426234764,0.005072843724449749
87,3.1380100803564837,0.30511050664965883,-0.09597739367999626,0.3230208602118584,0.06449500351955696
88,3.1441122904894767,0.5031327763659031,-0.0895169764757591,-0.0008195611000093583,0.033338353518341156
89,3.154174946016795,0.43979659714242414,-0.08953336769775928,0.0675214573005007,0.04579310253076603
90,3.1629708779596433,0.3402490916632361,-0.08818293855174927,0.1899569629578179,0.0034707428607248575
91,3.169775859792908,0.3512042990611589,-0.08438379929259292,0.14769580694909845,0.0071296896357954664
92,3.1767999457741314,0.3718315467593867,-0.08142988315361095,0.09208562416506305,0.007334113024326033
93,3.1842365767093193,0.39201345802717935,-0.0795881706703097,0.03799913187434869,0.039463857608929266
94,3.1920768458698627,0.29540982148435485,-0.07882818803282272,0.15907166579378304,0.0028843623493272534
95,3.1979850422995497,0.2872385516530362,-0.07564675471694707,0.148139015659659,0.0027195237273980677
96,3.2037298133326106,0.2792951121239456,-0.07268397440375389,0.1378011586963828,0.01918761249845355
97,3.2093157155750895,0.21479937381315506,-0.06992795122982623,0.2129390542316965,0.012125715048739312
98,3.2136117030513525,0.26848172439942364,-0.0656691701451923,0.11207025827238187,0.008078867271636423
99,3.218981337539341,0.24061729574268978,-0.06342776497974466,0.13448394839332445,0.012356386730883061
100,3.2237936834541947,0.19267606669653334,-0.06073808601187817,0.18761592501204483,0.006186428548003371
101,3.2276472047881253,0.16355145589816372,-0.056985767511637274,0.21337626305611881,0.009370889107720498
102,3.2309182339060887,0.21712562007161068,-0.0527182422505149,0.11640071368958568,0.00316249702972049
103,3.235260746307521,0.20400980431415547,-0.050390227976723184,0.12055511994890773,0.0036751603372770754
104,3.239340942393804,0.22184328430182002,-0.04797912557774503,0.07903039623756064,0.001558592757128236
105,3.2437778080798405,0.21578585933786304,-0.04639851765299382,0.07400562595971859,0.00252056505878252
106,3.2480935252665977,0.2276694277017339,-0.044918405133799445,0.04256318716531393,0.01878332021546746
107,3.2526469138206324,0.14851157670256177,-0.04406714139049317,0.1479786277187538,0.003315609678750061
108,3.255617145354684,0.16997689548752767,-0.041107568836118095,0.10286036049504083,0.005690855742209099
109,3.2590166832644343,0.1387793479011807,-0.03905036162621728,0.1375349267307936,0.0035816543754896204
110,3.261792270222458,0.16342954486436778,-0.0362996630916014,0.0891099314511278,0.008117489504716772
111,3.2650608611197454,0.11666692921339361,-0.03451746446257885,0.14853788949300328,0.008668407333641683
112,3.2673941997040132,0.18567958507323074,-0.031546706672718784,0.03493444920700102,0.011905896728366953
113,3.271107791405478,0.12410960956556741,-0.030848017688578765,0.11797026721685928,0.006527076972158569
114,3.273589983596789,0.17373225249116908,-0.02848861234424158,0.03450383683273009,0.003674040859982539
115,3.2770646286466127,0.15369435030899717,-0.027798535607586976,0.0561739747171015,0.00471668470940842
116,3.280138515652793,0.12464324510563027,-0.026675056113244947,0.09156207957522183,0.0007032673602625948
117,3.2826313805549057,0.13035192736485812,-0.02484381452174051,0.07516056608433642,0.0025788840483066395
118,3.285238419102203,0.14951573666203274,-0.02334060320005378,0.03912039269928233,0.006167086629465169
119,3.2882287338354437,0.11008368431637798,-0.022558195346068136,0.09139084619865734,0.003113994021035271
120,3.290430407521771,0.13700015474065497,-0.020730378422094988,0.044394865945409055,0.010601860269658972
121,3.293170410616584,0.06289706080810813,-0.01984248110318681,0.1494313286927149,0.004952459710200409
122,3.2944283518327464,0.1325117271854778,-0.01685385452933251,0.039196578537588025,0.01210261271199611
123,3.297078586376456,0.22067430948473915,-0.01606992295858075,-0.09798331191367744,0.019301399582922627
124,3.3014920725661505,0.13381653975374164,-0.0180295891968543,0.027562166268511698,0.0002496937544365263
125,3.3041684033612255,0.13587853947631717,-0.017478345871484065,0.01916925733671529,0.008237268041071444
126,3.306885974150752,0.19489473546745342,-0.01709496072474976,-0.07447988729145873,0.0020064051792060647
127,3.310783868860101,0.18491873197720535,-0.018584558470578934,-0.06454374218880152,0.006419197789747746
128,3.3144822434996453,0.15077317405673765,-0.019875433314354964,-0.018797795769481804,0.016761566516573234
129,3.31749770698078,0.041983985365460635,-0.0202513892297446,0.1385107641700482,0.0034812765686968194
130,3.318337386688089,0.11262087680473798,-0.017481173946343635,0.026623651931005687,0.003359509795452474
131,3.320589804224184,0.14166420704937582,-0.016948700907723522,-0.022073890442038967,0.012280455508952666
132,3.3234230883651716,0.05673306497952438,-0.0173901787165643,0.10032184570272151,0.005598366923773938
133,3.3245577496647623,0.14609097916467328,-0.01538374180250987,-0.03880721333358528,0.026603500252982568
134,3.3274795692480557,-0.033517190837595634,-0.016159886069181575,0.2260505211148348,0.0008134934662834474
135,3.3268092254313038,0.000858671768622081,-0.011638875646884879,0.16974266006712635,0.0004100491550010794
136,3.326826398866676,0.047683798510878624,-0.008244022445542351,0.09608797503386744,0.006875679224803483
137,3.3277800748368938,0.17667374115279058,-0.006322262944865003,-0.0998140791155588,0.013696496211492755
138,3.3313135496599497,0.09913776471415689,-0.008318544527176178,0.014628828233579041,0.001166336150423712
139,3.333296304954233,0.08785572890294306,-0.008025967962504597,0.029105672546184555,0.0008570621956530991
140,3.335053419532292,0.0785946517847004,-0.007443854511580906,0.04063723155571172,0.007364028548196593
141,3.336625312567986,0.16801308529444733,-0.006631109880466671,-0.09567517566983816,0.008983033620304668
142,3.3399855742738747,0.1145600680908308,-0.008544613393863434,-0.017446944687141475,0.01528657972681979
143,3.3422767756356913,-0.01640681617699552,-0.008893552287606264,0.17648412452853868,0.0005144999457034585
144,3.341948639312151,0.04358296414016328,-0.00536386979703549,0.08388834280611751,0.0002266826224973857
145,3.342820298594954,0.04832592361211108,-0.0036861029409131396,0.07519703578462629,0.002576070867613508
146,3.3437868170671963,-0.00019187739446371171,-0.0021821622252206135,0.14688953106311758,0.0005352303569975589
147,3.343782979519307,0.08036097688946936,0.0007556283960417384,0.025418982136420284,0.012917201237118953
148,3.3453901990570962,0.23494662565234375,0.001264008038770144,-0.20623727008227766,0.022151837616354468
149,3.3500891315701433,0.1391208929615914,-0.0028607373628754098,-0.06212716760844508,0.000267811040164058
150,3.3528715494293753,0.1410788918674479,-0.004103280715044311,-0.06590520958681749,0.016333767143693365
151,3.3556931272667243,0.02573367869863455,-0.0054213849067806606,0.10590479248050565,0.00036871098069294055
152,3.356207800840697,0.014035693546429572,-0.0033032890571705474,0.12185763298935991,0.0025416858084143824
153,3.3564885147116255,0.14076164373425484,-0.0008661363973833493,-0.06920142041151627,0.007384665154855105
154,3.3593037475863103,0.08842154419403185,-0.0022501648056136745,0.00905405538097491,0.005801147026603452
155,3.361072178470191,0.15216490789930148,-0.0020690836979941766,-0.08722229601057835,0.00718053385537173
156,3.3641154766281773,0.10492477286066634,-0.0038135296182057435,-0.016970555305808363,0.0021800566406057456
157,3.3662139720853905,0.08455878930274704,-0.0041529407243219105,0.012457022904136108,0.004875080383831737
158,3.3679051478714457,0.1404911153238089,-0.0039038002662391885,-0.07266170369668037,0.0251454805108304
159,3.370714970177922,-0.038273859024615886,-0.005357034340172796,0.19433600022780637,0.003476922524789
160,3.3699494929974296,0.07702217602717239,-0.001470314335616669,0.019819468639571403,0.0032849917689463343
161,3.371489936517973,0.03591461990460628,-0.001073924962825241,0.08104846391402712,0.0022019835548473367
162,3.372208228916065,0.09018128113658347,0.0005470443154553014,-0.0006672148724150007,0.0036030012536089904
163,3.3740118545387965,0.1291649602745195,0.0005337000180070014,-0.058981893808978794,0.01297323245874196
164,3.376595153744287,0.2292238427730245,-0.0006459378581725744,-0.2089132883836345,0.019164661318994844
165,3.3811796305997475,0.14414039744020224,-0.0048242036258452645,-0.08147805272638625,0.002268376738057182
166,3.3840624385485514,0.15996784899625463,-0.00645376468037299,-0.10663726416210348,0.0033563331401452582
167,3.3872617955284765,0.13895122936612744,-0.008586509963615058,-0.07701038488284061,0.0034684185245928874
168,3.390040820115799,0.11409253708430522,-0.010126717661271871,-0.04224812394987791,0.01472942207162207
169,3.392322670857485,-0.013869314249240594,-0.010971680140269429,0.14670760712303121,0.0006097771247018373
170,3.3920452845725,0.06890018294197046,-0.008037527997808805,0.019335224721512084,0.003790317034448058
171,3.3934232882313395,0.016021690799202334,-0.007650823503378564,0.0962873931241775,0.003277054016462305
172,3.3937437220473234,0.1728656536578838,-0.005725075640895014,-0.14122098570542493,0.03219305393808725
173,3.397201035120481,-0.01574810538380711,-0.008549495355003513,0.14001185325318896,0.0003669394915291361
174,3.396886073012805,0.02252269871778765,-0.005749258289939734,0.08009422409531282,0.002433198257230793
175,3.3973365269871607,0.11333702075766999,-0.004147373808033477,-0.05781528026574721,0.006375662624426784
176,3.399603267402314,0.057211840257600434,-0.005303679413348422,0.025152442036686734,0.004619620337598928
177,3.400747504207466,-0.019945039561986518,-0.004800630572614687,0.1393268595722339,0.00032596896324969344
178,3.400348603416226,0.0034867075572664746,-0.002014093381170009,0.10276826393234578,0.0008948934147497153
179,3.4004183375673716,0.11053538312340887,4.127189747690687e-05,-0.0583965667826897,0.015233039239695888
180,3.4026290452298396,-0.027223498516923975,-0.0011266594381768873,0.14825388943967366,0.0007714661408354211
181,3.4020845752595013,0.009534704121163869,0.001838418350616586,0.09278538267237607,0.00011585586630391235
182,3.4022752693419247,0.0012893022187932032,0.0036941260040641074,0.10569395931581418,0.0009377304882349553
183,3.4023010553863005,0.15137263238606138,0.005808005190380392,-0.1183434292701751,0.0003422505733856702
184,3.405328508034022,0.14900231463202382,0.00344113660497689,-0.11308046868140313,0.004016453833489651
185,3.4083085543266622,0.12171523954497954,0.001179527231348827,-0.07113840622369334,0.008859702465473782
186,3.410742859117562,0.04874518226500668,-0.0002432408931250399,0.03866338448029781,0.0017786076030461302
187,3.411717762762862,0.014389516311355398,0.0005300267964809163,0.09012536906438226,0.0007927519534994482
188,3.4120055530890894,0.05621960764640024,0.0023325341777685614,0.027536068746129724,0.0012720491989148426
189,3.413129945242017,0.07777996826065381,0.002883255552691156,-0.004118619771024283,0.010781601670606803
190,3.4146855446072304,-0.05782337879063765,0.00280088315727067,0.20013323129500762,0.0028481543539872973
191,3.4135290770314177,-0.000837299503931424,0.0068035477831708225,0.11547790622585671,8.933772145845215e-05
192,3.413512331041339,0.018822192993733652,0.009113105907687956,0.08798957759652962,0.0015221004046701279
