,X,v,theta,theta_dot,energy
0,0.0,2.0,0.5235987755982988,0.0,1.2
1,0.04,2.5687518211086795,0.5235987755982988,-0.5918302882931687,1.5272252910864685
2,0.0913750364221736,3.1376714329192232,0.5117621698324354,-1.183878543101837,1.6969035073731344
3,0.15412846508055805,3.658761973048529,0.48808459897039863,-1.721397404290164,1.9641930105892644
4,0.22730370454152865,4.17972314725375,0.45365665088459534,-2.2737254115596706,2.015690550350541
5,0.31089816748660365,4.650965844943801,0.4081821426534019,-2.7802435214544783,1.0647958706387324
6,0.4039174843854797,4.875285250782905,0.35257727222431234,-2.9723780325089435,0.1254991341926612
7,0.5014231894011378,4.899197164955086,0.2931297115741335,-2.9045161228267773,0.1988865344721589
8,0.5994071327002396,4.8572014553756775,0.23503938911759792,-2.759258342148526,0.14574360113838875
9,0.6965511618077531,4.825775336650133,0.17985422227462738,-2.644948147997405,0.13481051761518434
10,0.7930666685407558,4.852351948624819,0.12695525931467927,-2.631577508282289,1.0244648392350388
11,0.8901137075132521,4.640498292143953,0.07432370914903348,-2.2791298588265683,0.6800356133887807
12,0.9829236733561312,4.49364255044923,0.028741111972502113,-2.037623332757225,0.2418276637309859
13,1.0727965243651159,4.439742507214397,-0.012011354682642382,-1.9483579351380649,0.5601800239512373
14,1.1615913745094038,4.314271001479426,-0.05097851338540368,-1.7636955063162654,1.0314322949506667
15,1.2478767945389924,4.077242422570091,-0.08625242351172899,-1.423595723972105,0.5916293826685507
16,1.3294216429903942,3.9345431067864634,-0.11472433799117109,-1.2356692456126865,0.4726690893827802
17,1.4081125051261234,3.817229489807688,-0.13943772290342482,-1.094510599020795,0.7323023521250478
18,1.484457094922277,3.629700550064839,-0.16132793488384073,-0.856809315560092,0.5356756369156345
19,1.5570511059235739,3.486608808651178,-0.17846412119504257,-0.6921837428440402,0.8525940424821632
20,1.6267832820965975,3.24887491274194,-0.19230779605192339,-0.39343699154910017,0.05685894379615609
21,1.6917607803514363,3.234408251960351,-0.20017653588290538,-0.42832767167554386,0.21766537551264187
22,1.7564489453906433,3.171305262959932,-0.20874308931641625,-0.3940229464638877,0.6849336992138699
23,1.819875050649842,2.9629556746901926,-0.216623548245694,-0.1492085428792199,0.23117598353731295
24,1.8791341641436459,2.889918708925317,-0.2196077191032784,-0.10540393907259885,0.23282064505316358
25,1.9369325383221523,2.9714080270105474,-0.22171579788473036,-0.2887491739466058,0.6075515848395948
26,1.9963606988623632,2.7748206659362715,-0.2274907813636625,-0.06573805645051359,0.18046477544228476
27,2.0518571121810885,2.7146777810967,-0.22880554249267276,-0.04415496549579201,0.44903435644150147
28,2.1061506678030226,2.556947463703612,-0.2296886418025886,0.11959094035544884,0.19416531570059103
29,2.1572896170770948,2.4864598872846693,-0.22729682299547962,0.15560925717474758,0.07838272705674586
30,2.207018814822788,2.520147959797881,-0.22418463785198467,0.0401255375448767,0.09843688662411668
31,2.257421774018746,2.485301704441027,-0.22338212710108712,0.025727341138065175,0.23841876832535217
32,2.3071278081075666,2.3951745125363693,-0.22286758027832582,0.0924296306476941,0.09566466026533477
33,2.355031298358294,2.3594918181535127,-0.22101898766537192,0.07964790395783794,0.02986793273207761
34,2.4022211347213642,2.37483543608898,-0.21942602958621515,-0.0072595002758711474,0.01567567549063044
35,2.449717843443144,2.37145337631662,-0.21957121959173256,-0.06630286895679668,0.0479724980006921
36,2.497146910969476,2.354798721310101,-0.2208972769708685,-0.10595716081258856,0.27020007189556083
37,2.544242885395678,2.2460745849574266,-0.22301642018712028,-0.01125067267345116,0.10090661523647786
38,2.5891643770948267,2.2054735157626433,-0.22324143364058932,-0.016881981750201953,0.18943752844758888
39,2.6332738474100794,2.125030520133176,-0.22357907327559337,0.03569903317817656,0.3665704344592872
40,2.675774457812743,2.295685720181494,-0.22286509261202983,-0.27909837276624316,0.4041314859829068
41,2.7216881722163726,2.126688491409866,-0.22844706006735468,-0.09685321842893183,0.062327269089249744
42,2.76422194204457,2.101295035477677,-0.2303841244359333,-0.12633341576245719,0.27737976762581223
43,2.8062478427541233,1.9758305105995122,-0.23291079275118245,-0.010244368175590143,0.14317683779045498
44,2.8457644529661135,1.9086004132545316,-0.23311568011469425,0.020019481084362516,0.17397601902208795
45,2.883936461231204,1.8232677217051996,-0.232715290493007,0.07663936593108796,0.11320750865480667
46,2.920401815665308,1.7662429831628437,-0.23118250317438524,0.09206829946340742,0.18887247300840285
47,2.955726675328565,1.8731154792451439,-0.2293411371851171,-0.13133945757841417,0.497495772836927
48,2.9931889849134676,1.6173273836633861,-0.23196792633668536,0.1754597293382776,0.028132148178666928
49,3.0255355325867352,1.6373406664483352,-0.22845873174991982,0.07865526653412123,0.17661357155322163
50,3.058282345915702,1.5358718780120133,-0.2268856264192374,0.16031958273650126,0.02089292058234904
51,3.088999783475942,1.5521596960175859,-0.22367923476450738,0.07038044566182036,0.08764622938674117
52,3.120042977396294,1.610031738809527,-0.22227162585127097,-0.0794797457310113,0.2482497655285135
53,3.1522436121724846,1.4628788216872723,-0.22386122076589118,0.07100840578548354,0.08867804121615093
54,3.18150118860623,1.407169556000632,-0.22244105265018152,0.08722031392916937,0.0057831021714188965
55,3.209644579726243,1.406258584498701,-0.22069664637159814,0.02369341502948838,0.1574663955273377
56,3.237769751416217,1.3005297982728576,-0.22022277807100837,0.1140805748369423,0.0049003729481497706
57,3.263780347381674,1.2999244975120106,-0.21794116657426954,0.050743172168983705,0.08589496744376994
58,3.2897788373319146,1.2388068226387698,-0.21692630313088987,0.07668238136625502,0.14702679285677547
59,3.31455497378469,1.1267277155980264,-0.21539265550356476,0.17758362614359163,0.003225476724383004
60,3.3370895280966506,1.132469787782694,-0.21184098298069293,0.10633262292390995,0.060490698093983726
61,3.3597389238523045,1.0836778719846965,-0.20971433052221472,0.11606795265657777,0.016578898098336712
62,3.3814124812919983,1.1013939947633886,-0.20739297146908317,0.028870931215335252,0.1725204042524883
63,3.403440361187266,0.9521069330984212,-0.20681555284477646,0.18746555124158926,0.1241861364919811
64,3.4224824998492345,0.8292149152311551,-0.20306624181994468,0.3075040529554193,0.028392734100240347
65,3.4390667981538576,0.8647857863479931,-0.1969161607608363,0.19595205589862869,0.05847242853994325
66,3.4563625138808174,0.802398913712821,-0.19299711964286373,0.23020395535928592,0.07453796189571085
67,3.472410492155074,0.7158392020052464,-0.188393040535678,0.3012433340003032,0.011607607447660298
68,3.486727276195179,0.733942467794501,-0.18236817385567194,0.21950840214266465,0.055129356778629714
69,3.501406125551069,0.6643444829011315,-0.17797800581281864,0.26885461960931745,0.06202930055009431
70,3.5146930152090916,0.5775586574524045,-0.1726009134206323,0.34492728705183795,0.06143523137015899
71,3.52624418835814,0.47910608769094043,-0.16570236767959554,0.4399187542162612,0.027065928963895296
72,3.535826310111959,0.4285746089256962,-0.15690399259527033,0.46618389372949276,0.04190060510958341
73,3.5443978022904727,0.5215273813159976,-0.14758031472068048,0.28252678102195095,0.05057455155930116
74,3.5548283499167925,0.43138621186354054,-0.14192977910024146,0.37303746952185235,0.022812835076293683
75,3.5634560741540633,0.48295923767363413,-0.1344690297098044,0.254868388380038,0.06108317498416935
76,3.573115258907536,0.36448577990502035,-0.12937166194220365,0.39155946291337707,0.02838992097898214
77,3.5804049745056363,0.43869003886455377,-0.12154047268393611,0.24325398722687985,0.027564761062922823
78,3.5891787752829276,0.3806663701682776,-0.11667539293939852,0.2940024442299951,0.016877482230719443
79,3.596792102686293,0.3405570458631999,-0.11079534405479861,0.31953259359744346,0.004272501845413263
80,3.603603243603557,0.3538519004777639,-0.10440469218284974,0.2672053602210563,0.01225193027470141
81,3.6106802816131123,0.38796855942584146,-0.09906058497842862,0.18566978531575795,0.041486216791973986
82,3.618439652801629,0.28733563768376114,-0.09534718927211347,0.3068029369189447,0.023843442893575924
83,3.6241863655553046,0.3658590888821328,-0.08921113053373457,0.16156313296689076,0.02209423171361626
84,3.6315035473329473,0.3094001697734933,-0.08597986787439675,0.21972143720218956,0.0021292474229042723
85,3.6376915507284173,0.30412121198030284,-0.08158543913035296,0.20236367544375888,0.02023444439112787
86,3.6437739749680236,0.2423013054438864,-0.07753816562147778,0.2708255742716268,0.026879900929945647
87,3.6486200010769014,0.34636884224746656,-0.07212165413604524,0.0924199024684394,0.03753327048237979
88,3.6555473779218506,0.24298277508779575,-0.07027325608667645,0.2259104643923147,0.02108473545848281
89,3.6604070334236063,0.32518724246579134,-0.06575504679883015,0.0822647657810262,0.004934543855618515
90,3.6669107782729222,0.31149502963821735,-0.06410975148320963,0.0834406442477494,0.015397809683497953
91,3.6731406788656864,0.360044234884917,-0.06244093859825464,-0.00806891809148709,0.02612990995624827
92,3.6803415635633847,0.2900812113909601,-0.06260231696008438,0.07832539175352761,0.010768996852593863
93,3.686143187791204,0.3267461100773636,-0.06103580912501383,0.005042715410895002,0.03845479353892008
94,3.6926781099927513,0.21291096888012054,-0.06093495481679593,0.1575440791300931,0.01035109737066723
95,3.6969363293703537,0.25965901618813336,-0.057784073234194065,0.06964835967913448,0.026864094054252746
96,3.7021295096941165,0.16078786583129512,-0.05639110604061138,0.2007284910862842,0.0011142624023114803
97,3.7053452670107423,0.1679894374253036,-0.052376536218885696,0.17337310482942295,0.0033130626986842557
98,3.7087050557592485,0.1503615010374761,-0.04890907412229724,0.1843870865759575,0.0021377745362742
99,3.711712285779998,0.1641969899641768,-0.045221332390778086,0.1492851344083677,0.004744730474910201
100,3.714996225579281,0.19191349465475296,-0.04223562970261073,0.09446233881993937,0.017594254832971112
101,3.718834495472376,0.10504315489988658,-0.04034638292621194,0.21223805938394105,0.017760957768694643
102,3.720935358570374,0.25669364166269987,-0.03610162173853312,-0.0269111685610042,0.029547465018226478
103,3.726069231403628,0.14438388029829222,-0.036639845109753204,0.13083213176007508,0.0011868614333755015
104,3.728956909009594,0.15261008744522125,-0.034023202474551706,0.10773139833876363,0.011678404105730593
105,3.7320091107584985,0.22542922019075393,-0.031868574507776436,-0.011434978289243683,0.003037515233470397
106,3.7365176951623136,0.23906102071740848,-0.03209727407356131,-0.04124007160965353,0.031622823845636146
107,3.7412989155766616,0.10945836993618224,-0.032922075505754385,0.1436287939267322,0.0022350507695654055
108,3.7434880829753854,0.09113059517296136,-0.030049499627219742,0.16142821699331897,0.010042686538135887
109,3.7453106948788446,0.1910584805254645,-0.02682093528735336,0.0027708345755151353,0.002370860449327366
110,3.749131864489354,0.1793451143483947,-0.026765518595843057,0.012450154998441328,0.000883416441255648
111,3.7527187667763218,0.17493847649181105,-0.02651651549587423,0.011189621317350693,0.01905398592530765
112,3.756217536306158,0.06937028239779318,-0.026292723069527218,0.16169130293556527,0.015564973606529092
113,3.757604941954114,0.2676745265939193,-0.023058897010815912,-0.14339142237697944,0.033043714124044186
114,3.762958432485992,0.1445681302550097,-0.0259267254583555,0.03444036641553569,0.012917685062806732
115,3.7658497950910923,0.05870328740847623,-0.025237918130044786,0.15557274131522802,0.001328648431493986
116,3.7670238608392617,0.07877143326253963,-0.022126463303740226,0.11806094860430058,0.0061116559265205475
117,3.7685992895045124,0.1499537361313446,-0.019765244331654216,0.004808980905975105,0.00011514719006142705
118,3.771598364227139,0.15098516055509625,-0.019669064713534714,-0.002548457016653932,0.009056349491196594
119,3.774618067438241,0.20982917969826462,-0.019720033853867794,-0.09657974462138781,0.02510823310115319
120,3.7788146510322065,0.09087923756004136,-0.02165162874629555,0.07601316260072531,0.009007582125527845
121,3.7806322357834072,0.18434382685642037,-0.02013136549428104,-0.07051594247334549,0.03889370105736253
122,3.7843191123205355,-0.02484155602385385,-0.021541684343747952,0.23728032959159406,0.003109306743800081
123,3.7838222812000586,0.1912400503591841,-0.01679607775191607,-0.09309964472478788,0.038994270732117184
124,3.787647082207242,-0.011944889743434023,-0.01865807064641183,0.20669696164718815,0.0006455585919499231
125,3.7874081844123735,0.23521662384730418,-0.014524131413468066,-0.16946593304919022,0.04520185171855354
126,3.7921125168893197,0.041596570336142585,-0.017913450074451873,0.11666357007877093,0.00423391648971404
127,3.7929444482960424,0.12992708975903688,-0.015580178672876454,-0.021077223887374846,0.027745729339033045
128,3.795542990091223,-0.07973322178218922,-0.01600172315062395,0.288794686963309,0.009055482042226826
129,3.7939483256555793,0.05312972172853045,-0.01022582941135777,0.08482148049287044,0.004014295825855744
130,3.79501092009015,0.12200229121642608,-0.008529399801500361,-0.021488313859219163,0.005086406121148981
131,3.797450965914478,0.08112235621296922,-0.008959166078684744,0.03732174499147226,0.005141962581260062
132,3.7990734130387374,0.02067854822717332,-0.008212731178855298,0.12534985868742882,0.002554868845933756
133,3.799486984003281,0.11529614060564425,-0.005705734005106721,-0.01898625933760409,0.001209207356946102
134,3.8017929068153937,0.12568714401524883,-0.006085459191858803,-0.03624998743588663,0.012955622904120397
135,3.8043066496956985,0.02387458943636174,-0.006810458940576535,0.11467690267745094,0.00043128437574504645
136,3.8047841414844257,0.009506515914820504,-0.004516920887027516,0.13422625369272728,0.0018275732482885612
137,3.804974271802722,0.12380958846419192,-0.0018323958131729705,-0.03855457630171269,0.0043029494682670635
138,3.807450463572006,0.08944214274211602,-0.002603487339207224,0.012457781667809378,0.00621910929792364
139,3.809239306426848,0.15688897210390318,-0.0023543317058510368,-0.0894775439147392,0.03144750124004589
140,3.8123770858689263,-0.043837047428517295,-0.004143882584145821,0.21091847805235017,0.003268022900162288
141,3.811500344920356,0.049311929465240004,7.448697690118269e-05,0.06997791436609355,0.005931027767746997
142,3.812486583509661,0.15954264776353644,0.0014740452642230536,-0.09534626345146677,0.011485662923804946
143,3.8156774364649317,0.08732504440970648,-0.00043288000480628175,0.01341339304372513,0.004725203984028394
144,3.817423937353126,0.13975598207097664,-0.0001646121439317791,-0.06536027279703631,0.012407869680977957
145,3.8202190569945453,0.22825659418253846,-0.0014718175998725052,-0.1981595851358901,0.03063138437039838
146,3.824784188878196,0.0919750014208694,-0.005435009302590307,0.005829868373820241,0.010120110361486417
147,3.826623688906613,-0.014985847313040854,-0.005318411935113902,0.16467088694878018,0.00048411845257500115
148,3.8263239719603526,0.048057683993125336,-0.0020249941961382988,0.06854332166232324,0.0014036668339133826
149,3.827285125640215,0.07484737117525678,-0.0006541277628918339,0.027763525392687678,1.0747704071793335e-05
150,3.82878207306372,0.07499452156467555,-9.885725503808033e-05,0.027350486307206306,0.0034831888223503375
151,3.8302819634950134,0.030421773065597985,0.00044815247110604583,0.09418054469618982,0.0008973121239864483
152,3.8308903989563254,0.05564181304359818,0.0023317633650298424,0.05648224535019096,9.007160630202422e-05
153,3.8320032352171975,0.054098742951450625,0.0034614082720336617,0.059482382004114855,0.0004104096672984678
154,3.8330852100762267,0.047000135551274774,0.004651055912115959,0.07114788131611699,0.009233310127174283
155,3.8340252127872523,0.22625579351867267,0.006074013538438299,-0.19636529184513501,0.0018635448065275181
156,3.8385503286576257,0.2178033590542544,0.002146707701535598,-0.1819011250288072,0.03077571250998692
157,3.842906395838711,0.0744788875140028,-0.001491314799040546,0.03371621849384385,0.0024869085014340244
158,3.8443959735889908,0.10641983340977713,-0.0008169904291636691,-0.014633593460253697,0.0011135645650380594
159,3.8465243702571863,0.09615867587206442,-0.001109662298368743,0.0005179425500752097,0.007563801842254539
160,3.8484475437746277,0.1728968648610658,-0.001099303447367239,-0.11491551071350102,0.012305373380363981
161,3.851905481071849,0.10131367413342275,-0.0033976136616372596,-0.007863984649960895,0.002440418027909772
162,3.8539317545545173,0.07777897312343268,-0.0035548933546364777,0.026438966611008148,0.002022628177899209
163,3.855487334016986,0.10281444914903293,-0.003026114022416315,-0.012159146587632168,0.01003189287217513
164,3.857543622999967,0.19856522880327898,-0.0032692969541689583,-0.15667433461553756,0.03027953172300817
165,3.8615149275760325,0.04430571068616043,-0.00640278364647971,0.07375253438963011,0.0030883241772717606
166,3.862401041789756,0.10761851995719286,-0.004927732958687108,-0.023097138392059027,0.0022838470133603335
167,3.8645534121889,0.0867811693911886,-0.005389675726528288,0.006709760343054583,0.0060486114137491545
168,3.8662890355767234,0.15461977249134695,-0.005255480519667196,-0.09663122334024553,0.0006967338254544758
169,3.86938143102655,0.15017036490481564,-0.007188104986472107,-0.0915023082900768,0.00045463748513850606
170,3.8723848383246464,0.15331114860193146,-0.009018151152273644,-0.09832664679316935,0.01858399657048318
171,3.875451061296685,0.031629189183061554,-0.01098468408813703,0.08153756985796665,0.0037589434694019147
172,3.8760836450803464,-0.0719972458920757,-0.009353932690977698,0.23373841246010657,0.00672873446224957
173,3.8746437001625047,0.03509829022960585,-0.004679164441775566,0.07035211994603094,0.0011789569467022807
174,3.875345665967097,0.005130973141534396,-0.0032721220428549476,0.11392693416175392,0.001195780666557675
175,3.8754482854299277,0.11833749019339715,-0.0009935833596198692,-0.05684393452260994,0.008762154171979578
176,3.8778150352337954,0.04450144738594691,-0.002130462050072068,0.053617961560261315,0.0029507187378924223
177,3.8787050641815144,0.10586206218421812,-0.0010581028188668417,-0.03904910712529795,0.0033511776719519154
178,3.8808223054251987,0.07446660775725937,-0.0018390849613728008,0.007732965982113517,0.004623269983329915
179,3.8823116375803437,0.014206690919931736,-0.0016844256417305305,0.09758199770446307,0.0023260345416994087
180,3.8825957713987425,0.1359598844403469,0.0002672143123587311,-0.08554275439389347,0.007939288056006051
181,3.8853149690875495,0.07730871256583,-0.0014436407755191384,0.0025125612838567263,0.0011799986777305993
182,3.8868611433388662,0.09219863128102221,-0.0013933895498420038,-0.020246723755467422,0.0037686165860013696
183,3.8887051159644868,0.05193853051688144,-0.0017983240249513522,0.03973371237088097,0.0012365906227858995
184,3.8897438865748244,0.07441177255314285,-0.0010036497775337328,0.005495196846440009,0.0018523871270224109
185,3.891232122025887,0.098631487208022,-0.0008937458406049326,-0.03112942982331387,0.0055650156575100165
186,3.8932047517700474,0.1544916387746902,-0.00151633443707121,-0.11518238495042768,0.01637159134819305
187,3.8962945845455415,0.047500771506041053,-0.0038199821360797633,0.04485792929824048,0.004027245173388918
188,3.897244599975662,0.12686589748865448,-0.0029228235501149538,-0.07531196310575375,0.004942056727590037
189,3.899781917925435,0.08784904614197604,-0.004429062812230029,-0.017646244973514233,0.0019180233217547594
190,3.901538898848275,0.06641566347213095,-0.004781987711700314,0.013201373484714066,0.0030932153826320726
191,3.9028672121177177,0.11151496280104647,-0.004517960242006033,-0.055852701061140916,0.008026025293366552
192,3.9050975113737385,0.03972685878291095,-0.005635014263228851,0.05050008017339279,0.0002171684110666217
