,X,v,theta,theta_dot,energy
0,0.0,-2.0,0.0,0.0,0.15353816959278235
1,-0.04,-1.925103330030674,0.0,-0.11234500495398915,0.21639496881052658
2,-0.07850206660061348,-1.8157281584855987,-0.002246900099079783,-0.27640776227160196,0.08691609908561425
3,-0.11481662977032546,-1.8620760932553961,-0.007775055344511822,-0.20754662368287366,0.03650455948744011
4,-0.15205815163543338,-1.8809945018786782,-0.011925987818169295,-0.18145571171874697,0.01218128706531873
5,-0.18967804167300695,-1.8745334810677858,-0.015555102052544234,-0.19465271103813864,0.11138145534684744
6,-0.22716871129436267,-1.8166153197978043,-0.019448156273307007,-0.2860924582770424,0.11078728725068206
7,-0.26350101769031875,-1.7572643569733954,-0.025170005438847856,-0.3808194642859768,0.21658468583840568
8,-0.29864630482978666,-1.6378401262117945,-0.03278639472456739,-0.5672982696464486,0.23279280937805805
9,-0.33140310735402256,-1.7738894251270083,-0.04413236011749636,-0.37297146905969303,0.19751611779264092
10,-0.36688089585656275,-1.6656753361369891,-0.05159178949869022,-0.5481052570736565,0.28607897391184206
11,-0.40019440257930256,-1.830015072441519,-0.06255389464016335,-0.3170849069367792,0.06859505813084725
12,-0.4367947040281329,-1.7928531036592856,-0.06889559277889894,-0.3910976883724853,0.20230111158764869
13,-0.47265176610131865,-1.6829091706108674,-0.07671754654634864,-0.5758616317087961,0.506563690725091
14,-0.506309949513536,-1.9708949264259277,-0.08823477918052457,-0.16768643779395087,0.34801924927751965
15,-0.5457278480420545,-1.7981251672316512,-0.09158850793640358,-0.4517403007982936,0.005329955168560999
16,-0.5816903513866876,-1.793980358319947,-0.10062331395236945,-0.48482084708545126,0.066777129286148
17,-0.6175699585530865,-1.828421352297073,-0.11031973089407848,-0.4629540307185654,0.07328984903151711
18,-0.6541383855990279,-1.788246686549088,-0.11957881150844979,-0.5552179450410584,0.044734380035919966
19,-0.6899033193300097,-1.8106292405338875,-0.13068317040927097,-0.556956312735791,0.11199177063359038
20,-0.7261159041406875,-1.868263469182353,-0.1418222966639868,-0.5095537180188452,0.15194003512088003
21,-0.7634811735243345,-1.7880277524518875,-0.15201337102436369,-0.6702550715162576,0.1008747896190225
22,-0.7992417285733723,-1.8399903246298348,-0.16541847245468883,-0.637730052097031,0.19392505728826187
23,-0.836041535065969,-1.9387826980171723,-0.17817307349662945,-0.5399758759506289,0.0071603749032864705
24,-0.8748171890263124,-1.9327865127475194,-0.188972591015642,-0.6009339350306417,0.2193436197932039
25,-0.9134729192812628,-1.8212908206865657,-0.20099126971625483,-0.820428025598949,0.09613221252599975
26,-0.9498987356949942,-1.7682870543442861,-0.2173998302282338,-0.9570275382635598,0.016944602564333215
27,-0.9852644767818799,-1.7745678260040219,-0.236540380993505,-1.0112414083189762,0.1451245967828813
28,-1.0207558333019604,-1.8490657228868117,-0.25676520915988454,-0.9715023883313038,0.2838361740586633
29,-1.0577371477596966,-1.9914907900267063,-0.2761952569265106,-0.8395307951190194,0.20967250224663103
30,-1.0975669635602308,-2.088250525017838,-0.292985872828891,-0.7800649359034794,0.2177727920169502
31,-1.1393319740605876,-2.1839898296645193,-0.3085871715469606,-0.7274865307489987,0.1590813482670379
32,-1.183011770653878,-2.110438143055585,-0.3231369021619406,-0.9218941644095167,0.14423046552540977
33,-1.2252205335149897,-2.171379740239381,-0.3415747854501309,-0.9285704539758947,0.03695015817184114
34,-1.2686481283197772,-2.150998170148758,-0.3601461945296488,-1.0558581593981424,0.3886688920467134
35,-1.3116680917227523,-2.3178293933149736,-0.38126335771761166,-0.9252746814139136,0.24454407239006853
36,-1.3580246795890518,-2.413451998465271,-0.3997688513458899,-0.9015354660951441,0.7460303844934154
37,-1.4062937195583571,-2.7023642255156637,-0.4177995606677928,-0.6167641895968203,0.07751534562076094
38,-1.4603410040686704,-2.7246503413838803,-0.43013484445972916,-0.7055010398202597,0.4305915705622624
39,-1.514834010896348,-2.8701208196888457,-0.4442448652561344,-0.6297678340923603,0.4340564423990664
40,-1.572236427290125,-3.0090750598338403,-0.45684022193798157,-0.5679219601165455,0.27880457280148185
41,-1.632417928486802,-3.0920608459393097,-0.4681986611403125,-0.5858961531011636,0.5661910798802917
42,-1.6942591454055882,-3.261202563424086,-0.4799165842023358,-0.49216363703687216,0.43199107989275093
43,-1.7594831966740698,-3.3820071640227405,-0.4897598569430732,-0.46716838075199196,0.14688632151407718
44,-1.8271233399545246,-3.417715281392862,-0.49910322455811307,-0.5582043733542332,0.5593418581885173
45,-1.8954776455823819,-3.5679523579468913,-0.5102673120251977,-0.5010590816863205,1.0639882149313113
46,-1.9668366927413197,-3.8464256942328072,-0.5202884936589242,-0.2801521861092317,0.726590631194231
47,-2.043765206625976,-4.020888587982653,-0.5258915373811088,-0.1992427009734382,0.2934597788698605
48,-2.124182978385629,-4.084572839614706,-0.5298763914005776,-0.2642075348928195,1.013758925452803
49,-2.205874435177923,-4.315561949231908,-0.535160542098434,-0.11383277649712337,0.6577988896058012
50,-2.2921856741625612,-4.455174340317221,-0.5374371976283765,-0.0836275472694436,0.8098373649523647
51,-2.3812891609689055,-4.62286643244383,-0.5391097485737654,-0.01805961072380502,0.48841412629894154
52,-2.473746489617782,-4.717777278073528,-0.5394709407882414,-0.04681714245695823,0.6927586774706875
53,-2.5681020351792525,-4.852068035838907,-0.5404072836373806,-0.025011400644435203,0.4036969617794699
54,-2.6651433958960307,-4.92547498571395,-0.5409075116502693,-0.0818504704742877,0.2866756343486655
55,-2.7636528956103095,-4.9749347493021805,-0.542544521059755,-0.16963677266534932,0.6943696177857233
56,-2.863151590596353,-5.102116096509197,-0.545937256513062,-0.15805719145869043,0.6978556215207664
57,-2.9651939125265367,-5.226590793418619,-0.5490984003422358,-0.15113590259172005,1.5317376690356783
58,-3.0697257283949093,-5.500359478640323,-0.5521211183940702,0.04570524956687516,0.5121812027944064
59,-3.1797329179677156,-5.5831652447864535,-0.5512070134027327,-0.002743118074902476,0.017399040146185745
60,-3.291396222863445,-5.573912232947188,-0.5512618757642308,-0.1685394440445096,0.46027061758558035
61,-3.4028744675223885,-5.646537857239503,-0.554632664645121,-0.2297248838399185,0.7554455161685173
62,-3.5158052246671785,-5.768001043560332,-0.5592271623219193,-0.2296717379334804,0.9262159696136935
63,-3.631165245538385,-5.914974050201938,-0.5638205970805888,-0.19877203105471014,0.38878298508144654
64,-3.7494647265424237,-5.971380696474766,-0.5677960377016831,-0.2843773204613344,1.2403683839973343
65,-3.868892340471919,-6.163146870915193,-0.5734835841109097,-0.19996952064479004,1.243073811570413
66,-3.9921552778902227,-6.349157305155522,-0.5774829745238055,-0.12510501531846202,0.3081975067827117
67,-4.119138423993333,-6.389057949326683,-0.5799850748301747,-0.23545905905820533,0.9193921538685039
68,-4.246919582979867,-6.519834915256045,-0.5846942560113388,-0.23248775036765784,0.5044202684728227
69,-4.377316281284988,-6.587141263529875,-0.589344011018692,-0.31057120461633825,1.6410424676321724
70,-4.509059106555585,-6.8179697777939525,-0.5955554351110188,-0.18614754555205798,0.9826527481707523
71,-4.645418502111465,-6.9487840671734125,-0.59927838602206,-0.18863295675816327,0.47807312637925353
72,-4.784394183454933,-7.0078033494441305,-0.6030510451572232,-0.28136057619233373,1.4594694566710524
