,X,v,theta,theta_dot,energy
0,0.0,-2.0,0.5235987755982988,0.0,0.7280481609513855
1,-0.04,-1.6573328937694254,0.5235987755982988,-0.2981376285554677,0.47109639187694385
2,-0.07314665787538852,-1.3929719439603936,0.5176360230271895,-0.4945525760102746,0.311843644637779
3,-0.10100609675459639,-1.1873249296976451,0.5077449715069839,-0.6171315854907725,0.06384554964259542
4,-0.1247525953485493,-1.142614526724145,0.49540233979716847,-0.5327912685492945,0.0008616563858171262
5,-0.1476048858830322,-1.1490959878113474,0.48474651442618255,-0.3844745191429605,0.07155293512344336
6,-0.17058680563925915,-1.0958459103779146,0.47705702404332334,-0.31814814750891757,0.17851242364644995
7,-0.19250372384681744,-0.946867189187426,0.470694061093145,-0.38167100508318713,0.07280099836266322
8,-0.21144106763056597,-0.8798052022047688,0.46306064099148125,-0.33799441156499394,0.14935059951801058
9,-0.22903717167466134,-0.7246896250946302,0.4563007527601814,-0.41483841296671525,0.01145372899780188
10,-0.24353096417655395,-0.7450658070153684,0.4480039845008471,-0.2578558874945942,0.05390119617840225
11,-0.25843228031686133,-0.6819121732196564,0.44284686675095525,-0.2158865175695804,0.11853968640443682
12,-0.27207052378125446,-0.5221761940527682,0.43852913639956365,-0.30639423442715236,0.04057958324132336
13,-0.2825140476623098,-0.45451628673544414,0.4324012517110206,-0.2734460167551442,0.03442276084656877
14,-0.29160437339701867,-0.3886927819633939,0.42693233137591774,-0.23989252730930624,0.028385354676539618
15,-0.2993782290362865,-0.32539842810334507,0.4221344808297316,-0.20457248479725845,0.0034835613562764992
16,-0.30588619759835345,-0.34073221364190404,0.41804303113378644,-0.06313658933929608,0.04581628346518101
17,-0.3127008418711915,-0.21735708857652475,0.4167802993470005,-0.11290663498266158,0.0024492763110792013
18,-0.317047983642722,-0.21196427248505453,0.41452216664734726,-0.0012867672075711212,0.01814894359308144
19,-0.3212872690924231,-0.13465552248828408,0.41449643130319586,0.010980423187082703,0.01867291369427742
20,-0.3239803795421888,-0.005722210651110116,0.4147160397669375,-0.0476399457102618,0.0006028652398439988
21,-0.324094823755211,0.06449558512019533,0.41376324085273225,-0.025576740114553298,0.002127943616997924
22,-0.3228049120528071,0.026931479939496003,0.4132517060504412,0.14421961205161643,0.0025321716127083994
23,-0.32226628245401717,0.0958687592726597,0.4161360982914735,0.16758571260029453,0.014392930419024395
24,-0.32034890726856396,0.22557948605676434,0.4194878125434794,0.10846777017782956,0.03152027644527271
25,-0.31583731754742866,0.35236601382409494,0.421657167947036,0.05452107122672147,0.057509543841298305
26,-0.30878999727094675,0.5033748270656675,0.4227475893715704,-0.031826027462886146,0.022975240091880338
27,-0.2987225007296334,0.5421776883313828,0.4221110688223127,0.03571239255285196,0.0554035323860279
28,-0.28787894696300576,0.6351003607964633,0.42282531667336976,0.029010680625795753,0.052090239061970946
29,-0.27517693974707647,0.7086946404608861,0.4234055302858857,0.04898061995989029,0.16201740781773274
30,-0.26100304693785875,0.9230764830611073,0.4243851426850835,-0.12340057890439304,0.07077427956346943
31,-0.24254151727663661,0.843469906616343,0.42191713110699564,0.10647428517564911,0.301333534179523
32,-0.22567211914430976,1.1807053487063288,0.4240466168105086,-0.2346223513425047,0.07924415136739223
33,-0.20205801217018318,1.1101995518618375,0.41935416978365847,-0.017263658201241677,0.14955436907604733
34,-0.17985402113294643,1.234862714047357,0.41900889661963364,-0.06834752223666507,0.12657923244334368
35,-0.1551567668519993,1.328633686531782,0.41764194617490036,-0.07722070538240354,0.09047107618577425
36,-0.12858409312136365,1.3891835221870243,0.4160975320672523,-0.04099065725697962,0.2365033576317286
37,-0.10080042267762317,1.5482782368805634,0.41527771892211274,-0.14043712548414145,0.0490485375377315
38,-0.0698348579400119,1.5737127343336972,0.4124689764124299,-0.056733584112836494,0.1580721494634098
39,-0.038360603253337955,1.6655104989370473,0.4113343047301732,-0.06502564296390231,0.27328271545454047
40,-0.005050393274597012,1.8188054057976002,0.4100337918708951,-0.1582372720663021,0.061247927902107556
41,0.03132571484135499,1.781037975949518,0.40686904642956906,0.010918163115578888,0.21124124354748056
42,0.06694647436034534,1.8902576283098838,0.4070874096918806,-0.02319063056135541,0.1682815440398934
43,0.10475162692654302,1.9710160804190682,0.4066235970806535,-0.018023370832017546,0.16544574312308094
44,0.14417194853492438,2.0468616713756633,0.4062631296640131,-0.006235164196756423,0.11131659925970921
45,0.18510918196243764,2.0941792017256105,0.406138426380078,0.044748470173206004,0.2049519382590382
46,0.22699276599694984,2.1833520034766893,0.40703339578354214,0.03801920681517003,0.2396325189400208
47,0.27065980606648365,2.283984516696824,0.40779377991984556,0.015793788887407196,0.3684150028286758
48,0.31633949640042014,2.4343568799239623,0.4081096556975937,-0.07467251960523645,0.05743160421061657
49,0.3650266339988994,2.4064106126768423,0.406616205305489,0.08048538689860628,0.32233978171153654
50,0.41315484625243626,2.5302868601094155,0.4082259130434611,0.02609959413142978,0.01662838822597264
51,0.46376058345462456,2.518785592325477,0.4087479049260897,0.15864645241352088,0.5114752760012738
52,0.5141362953011341,2.7089592353292065,0.41192083397436013,0.013739416871505455,0.09592613297444
53,0.5683154800077183,2.737898004425785,0.41219562231179024,0.09167105183841127,0.13691240863205445
54,0.623073440096234,2.780851388753642,0.41402904334855845,0.15042029122520553,0.37533671922665884
55,0.6786904678713068,2.9054865207950105,0.41703744917306257,0.09754027193720957,0.39695925968976226
56,0.736800198287207,3.0317691736068917,0.4189882546118068,0.04343702156439912,0.32483965396007
57,0.7974355817593448,3.1297234738352278,0.41985699504309476,0.02882490212703733,0.14052567069052554
58,0.8600300512360494,3.1677121429805393,0.4204334930856355,0.096634211956771,0.005994680779843818
59,0.9233842940956601,3.160614651367652,0.4223661773247709,0.22635122319206313,0.06085498273113437
60,0.9865965871230131,3.17383930877584,0.4268932017886122,0.32877391357322666,0.4982455991702503
61,1.05007337329853,3.3191585763891287,0.4334686800600767,0.25208638058824406,0.4081671885028215
62,1.1164565448263124,3.4318626425650534,0.4385104076718416,0.22215178689507156,0.12457925252424097
63,1.1850937976776135,3.461302997374531,0.442953443409743,0.3069993343286398,0.5746089906999347
64,1.254319857625104,3.6150949822430603,0.4490934300963158,0.22458637826065253,0.06669282673327889
65,1.3266217572699652,3.6272920422973463,0.45358515766152885,0.3357447764657665,0.5307878332081628
66,1.3991675981159122,3.7620241025716967,0.46030005319084416,0.2829106083460617,0.2329339159188816
67,1.474408080167346,3.815797552357401,0.4659582653577654,0.34124538862616927,0.25708863511833596
68,1.550724031214494,3.874716065848265,0.4727831731302888,0.3943775039889087,0.9808706741159366
69,1.6282183525314593,4.111341827817242,0.48067072321006693,0.21225165663063186,0.38215008936260125
70,1.710445189087804,4.194673905036268,0.4849157563426796,0.23735565855208357,0.6725798883713815
71,1.7943386671885295,4.342510697181725,0.48966286951372123,0.17820903582528339,0.30328543198271735
72,1.881188881132164,4.403609463599934,0.4932270502302269,0.23560687510166545,0.5249155403639681
73,1.9692610704041627,4.511923100038378,0.4979391877322602,0.23170175466688922,0.3654853946662287
74,2.05949953240493,4.58360086250842,0.502573222825598,0.27766009712553513,0.45217329042343346
75,2.1511715496550985,4.672093742463179,0.5081264247681088,0.30294908282736666,0.5778201670310967
76,2.244613424504362,4.784444085508877,0.514185406424656,0.2987586083149485,0.6512905947946076
77,2.34030230621454,4.908627195326442,0.520160578590955,0.281167211472257,0.7396606952984824
78,2.438474850121069,5.0466649717158765,0.5257839228204001,0.2476197181621969,0.866369722371033
79,2.5394081495553866,5.204718834882636,0.530736317183644,0.19011725750418812,0.2791677801858083
80,2.643502526253039,5.24988386497645,0.5345386623337277,0.2805029703652662,1.2311609634551104
81,2.748500203552568,5.467813324841849,0.540148721741033,0.14898586389830012,1.1386089872989702
82,2.857856470049405,5.660710472380005,0.543128439018999,0.05202713635498579,0.5303752359447418
83,2.9710706794970054,5.744112742823816,0.5441689817460987,0.09687073334266866,0.8234233197534476
84,3.085952934353482,5.8749619736186345,0.5461063964129521,0.08115305311046092,0.49079147918062366
85,3.2034521738258546,5.948605010113121,0.5477294574751613,0.13944819683430862,0.9062230916835248
86,3.322424274028117,6.087965347424386,0.5505184214118475,0.11408896902799143,0.9884551345103189
87,3.444183580976605,6.23688331286409,0.5528002007924073,0.07751516053924815,1.0594114702471131
88,3.5689212472338867,6.392968661624346,0.5543505040031923,0.03263002864508358,0.44170722165121395
89,3.696780620466374,6.452733018329717,0.5550031045760939,0.11116774135110036,1.1436969147774583
90,3.825835280832968,6.615807612676186,0.5572264594031159,0.05819449322528218,1.1216768791603953
91,3.958151433086492,6.771539244521605,0.5583903492676215,0.015411744927197712,0.6795346931427346
92,4.093582217976924,6.86114988732603,0.5586985841661655,0.05717993824083316,0.2920076069332278
93,4.230805215723445,6.89550716864469,0.5598421829309821,0.1693247119028683,1.8745288571284286
94,4.368715359096338,7.148808739786133,0.5632286771690395,0.0035057173617987214,0.8798863224667821
95,4.511691533892061,7.260090414357459,0.5632987915162755,0.019338947297261235,1.0872670694175202
96,4.6568933421792105,7.396854218102304,0.5636855704622207,0.0028782128144263334,0.9078426462787226
