,X,v,theta,theta_dot,energy
0,0.0,-2.0,-0.3490658503988659,0.0,1.0270155619041332
1,-0.04,-2.4921613531041737,-0.3490658503988659,0.5931666654842532,1.2185123028141556
2,-0.08984322706208347,-2.965540182824278,-0.3372025170891808,1.1598586330328828,1.7493543178065647
3,-0.14915403071856903,-3.542243620587634,-0.3140053444285231,1.8789278123211788,1.8818880282465782
4,-0.21999890313032172,-4.065988437874802,-0.27642678818209954,2.5353235954030784,0.5763172554829868
5,-0.30131867188781775,-3.9225292087097205,-0.22572031627403796,2.2480655813878254,0.11958662543879899
6,-0.3797692560620122,-3.950922546897092,-0.18075900464628145,2.2237755257275156,0.2001065636840684
7,-0.458787706999954,-3.898683857963969,-0.13628349413173113,2.093839917084024,0.778903287248197
8,-0.5367613841592334,-3.6978487369396236,-0.09440669579005065,1.7554370872840206,0.42551142793753444
9,-0.6107183588980258,-3.5821298119250855,-0.05929795404437024,1.5549172871223274,0.36719654655963063
10,-0.6823609551365275,-3.4794289839949855,-0.02819960830192369,1.3837134235325685,0.3100483017369329
11,-0.7519495348164272,-3.5676080910413175,-0.000525339831272318,1.507639910315684,1.371253839103167
12,-0.8233016966372536,-3.1852711607580724,0.02962745837504136,0.9339801441260898,0.7294005073505485
13,-0.8870071198524151,-3.412077971464881,0.04830706125756316,1.2827502536725541,1.2488046190903201
14,-0.9552486792817128,-3.049489600977865,0.07396206633101424,0.7536989221242971,0.06135755613561202
15,-1.01623847130127,-3.070349310514315,0.08903604477350018,0.806627969886453,0.07124965530393607
16,-1.0776454575115564,-3.0944611249664016,0.10516860417122924,0.8687944533353803,0.9983841582723787
17,-1.1395346800108843,-2.7773278617541877,0.12254449323793684,0.42658546244227197,0.364114864203764
18,-1.195081237245968,-2.9077004922151493,0.13107620248678228,0.6566158509831976,0.20733651604175382
19,-1.253235247090271,-2.839307953606539,0.14420851950644623,0.59333321915377,0.13433120483258287
20,-1.3100214061624018,-2.794770580114051,0.15607518388952163,0.569471116282283,0.3098689683967126
21,-1.3659168177646828,-2.687944229880493,0.1674646062151673,0.45687934408884956,0.435998677131105
22,-1.4196757023622926,-2.5311232607617127,0.17660219309694428,0.27394344179243646,0.05814708474356652
23,-1.4702981675775268,-2.5560560319566226,0.182081061932793,0.36241248091802347,0.3221724056645476
24,-1.5214192882166593,-2.4351245255444853,0.18932931155115346,0.23725042846674127,0.006878165274316238
25,-1.570121778727549,-2.44051875153588,0.19407432012048828,0.3005280494197302,0.0705002499615669
26,-1.6189321537582666,-2.4714698491402185,0.2000848811088829,0.4027834554181602,0.5223936736574911
27,-1.668361550741071,-2.2671015396928627,0.2081405502172461,0.16078004213933444,0.5185636745005574
28,-1.7137035815349282,-2.046823001284227,0.21135615106003278,-0.1017538698297441,0.9190653113984226
29,-1.7546400415606127,-2.4854528295673113,0.20932107366343788,0.603226936964766,1.2171211324621756
30,-1.804349098151959,-2.006847280521312,0.22138561240273322,-0.03791906315412452,0.16915095346546827
31,-1.8444860437623851,-1.928035006204682,0.22062723113965071,-0.08869525269998269,0.29564493288118343
32,-1.8830467438864789,-2.07985907543478,0.21885332608565106,0.19786007168885772,0.529227649131829
33,-1.9246439253951744,-1.8344374173418678,0.2228105275194282,-0.097660897684822,0.12932686337113525
34,-1.9613326737420118,-1.9058887853853748,0.22085730956573177,0.07183239902646033,0.5720453610685334
35,-1.9994504494497194,-1.6166529346833394,0.22229395754626097,-0.2870776094042396,0.2617456580127215
36,-2.0317835081433864,-1.7758752774503483,0.2165524053581762,0.01069674038619356,0.599484472690813
37,-2.0673010136923935,-1.4505577851354339,0.21676634016590005,-0.4027123653843167,0.31716769758592217
38,-2.096312169395102,-1.6635352316289718,0.2087120928582137,-0.027490941009134018,0.4439364083427825
39,-2.1295828740276814,-1.4070845513934214,0.20816227403803103,-0.34290211207116666,0.31254141508765987
40,-2.15772456505555,-1.6236611011010387,0.2013042317966077,0.03570833167321985,0.5124345333154267
41,-2.1901977870775706,-1.319152713675373,0.2020183984300721,-0.35304614099674125,0.19594692494782345
42,-2.216580841351078,-1.4647276565591298,0.19495747561013727,-0.08013419037319025,0.3620782978839574
43,-2.245875394482261,-1.2275213760563621,0.19335479180267345,-0.3722480288898979,0.30355962848983875
44,-2.2704258220033884,-1.4675920301346737,0.1859098312248755,0.03764018362172916,0.49526057456177985
45,-2.2997776626060817,-1.141400936514109,0.18666263489731008,-0.3888721215722666,0.23903636631511116
46,-2.322605681336364,-1.3447275067456856,0.17888519246586476,-0.03461954830913744,0.3345171750239767
47,-2.3495002314712776,-1.1053773478102549,0.178192801499682,-0.33560349685905216,0.18531621378780777
48,-2.371607778427483,-1.2688515675414251,0.17148073156250096,-0.04216305800507575,0.2998957556942294
49,-2.3969848097783113,-1.0415022767470457,0.17063747040239943,-0.32801663951689847,0.04784704062988833
50,-2.417814855313252,-0.9997764002560492,0.16407713761206147,-0.33977214408645,0.016531671663191506
51,-2.4378103833183733,-1.0179234467855351,0.15728169473033246,-0.26489463144045655,0.06575125465805695
52,-2.458168852254084,-0.9579489754483563,0.15198380210152332,-0.3076955084583732,0.031494617879974554
53,-2.477327831763051,-0.9285118963567178,0.14582989193235585,-0.3068307182063705,0.006070268801449977
54,-2.4958980696901856,-0.9368323193593825,0.13969327756822844,-0.25176037002861545,0.053305113526640045
55,-2.5146347160773734,-0.884028223692128,0.13465807016765613,-0.2892585670662866,0.00376059663321602
56,-2.532315280551216,-0.8900071897921317,0.1288728988263304,-0.2409013702327367,0.000476773604064276
57,-2.5501154243470587,-0.8913098404117048,0.12405487142167568,-0.2011797557309325,0.09822125999921504
58,-2.567941621155293,-0.7867557904015552,0.12003127630705702,-0.3204269374860993,0.023867314159286078
59,-2.583676736963324,-0.817478612200977,0.11362273755733504,-0.2394697678209008,0.0056719066609142044
60,-2.6000263092073435,-0.8124119009390283,0.10883334220091702,-0.21368757464531601,0.012373757154314186
61,-2.616274547226124,-0.7992820953420033,0.1045595907080107,-0.2013318849955154,0.028399422249219305
62,-2.6322601891329644,-0.7665185291816602,0.10053295300810039,-0.21952429559794148,0.08667161966506132
63,-2.6475905597165976,-0.8767677586197544,0.09614246709614156,-0.025478528454317917,0.22276949638879906
64,-2.6651259148889928,-0.6307461151406981,0.0956328965270552,-0.36458439439093554,0.14706192800649434
65,-2.6777408371918066,-0.853617565061585,0.08834120863923649,-0.0037315485774569446,0.20905447680184444
66,-2.6948131884930384,-0.6161295983041806,0.08826657766768735,-0.3326358088328603,0.11059946183193428
67,-2.707135780459122,-0.7882301852037099,0.08161386149103014,-0.04957321060531983,0.13063580925295049
68,-2.722900384163196,-0.6282416674975684,0.08062239727892374,-0.26478934238252433,0.10704500436943706
69,-2.7354652175131475,-0.7924264288143464,0.07532661043127326,0.004365150937165996,0.13065192375438023
70,-2.7513137460894344,-0.6326742421962062,0.07541391345001658,-0.21245852689505945,0.007243464926028936
71,-2.7639672309333583,-0.6447455930303068,0.07116474291211539,-0.172252285405997,0.07082195121482074
72,-2.7768621427939646,-0.7516041028759811,0.06771969720399544,0.008534547184634589,0.15897407660016674
73,-2.791894224851484,-0.5461806522443868,0.06789038814768814,-0.27899997430003043,0.11508534856846696
74,-2.802817837896372,-0.7479930849310186,0.062310388661687525,0.04296575652046697,0.10631555481997439
75,-2.817777699594992,-0.6098934600073226,0.06316970379209687,-0.1454742711329314,0.07107811536334055
76,-2.8299755687951387,-0.7232448059759258,0.06026021836943824,0.04277316552619739,0.2578931681328446
77,-2.844440464914657,-0.3753822145744466,0.06111568167996219,-0.4603678309041006,0.15162822242991209
78,-2.851948109206146,-0.7494435271874005,0.05190832506188017,0.11763341641975444,0.17498543965364374
79,-2.866936979749894,-0.5208040557214004,0.054260993390275264,-0.20960965207332194,0.1036381379133755
80,-2.877353060864322,-0.7121968106184551,0.050068800348808826,0.0930018571482743,0.13912790750098958
81,-2.891596997076691,-0.5212260074846591,0.051928837491774314,-0.17838128845289952,0.08006048580658733
82,-2.902021517226384,-0.6694999566657437,0.048361211722716325,0.0589900431918787,0.16866134838788843
83,-2.9154115163596988,-0.42347028622520955,0.0495410125865539,-0.29541033004893613,0.14804609289393791
84,-2.923880922084203,-0.7547195134513456,0.043632805985575174,0.2154129943566454,0.33412357819625643
85,-2.9389753123532296,-0.317817786773421,0.047941065872708084,-0.426491882404777,0.12821880870530764
86,-2.945331668088698,-0.6894208841486018,0.03941122822461254,0.14436160693522204,0.17659759846345607
87,-2.95912008577167,-0.43770797813079054,0.042298460363316984,-0.22133065941985441,0.09512580199375822
88,-2.967874245334286,-0.6455510163177549,0.0378718471749199,0.10258708056447119,0.01885452906037524
89,-2.980785265660641,-0.617394519878254,0.03992358878620932,0.07151428208604904,0.05582350082475166
90,-2.993133156058206,-0.5292974631308313,0.0413538744279303,-0.04879158677554457,0.00993024605439809
91,-3.003719105320823,-0.5481146946846231,0.04037804269241941,-0.008435297074795477,0.0418346189456685
92,-3.0146813992145156,-0.4742909598699895,0.0402093367509235,-0.10721272159875136,0.025696467266769104
93,-3.0241672184119155,-0.5271803885505372,0.03806508231894847,-0.01612434352416621,0.012044029057698849
94,-3.034710826182926,-0.5499813245504225,0.03774259544846515,0.029240717227782147,0.10028258191781406
95,-3.0457104526739345,-0.37221905858152016,0.038327409793020795,-0.22611909824933724,0.08972552318056069
96,-3.0531548338455647,-0.6016024683234229,0.03380502782803405,0.12896882564370554,0.10221008683762856
97,-3.065186883212033,-0.43471771840723245,0.036384404340908165,-0.11127849311131136,0.048754880976978554
98,-3.073881237580178,-0.5433879323636317,0.03415883447868194,0.06231359934601888,0.03636360492977972
99,-3.0847489962274506,-0.4782530214016702,0.03540510646560232,-0.025291027372497915,0.009679896425219202
100,-3.094314056655484,-0.4590629625052192,0.03489928591815236,-0.04365114947219423,0.02066445757930434
101,-3.1034953159055885,-0.4158392181479158,0.03402626292870848,-0.09818897902085197,0.03062914729329297
102,-3.111812100268547,-0.4874175209884566,0.03206248334829144,0.019118117988696698,0.0433658192008125
103,-3.121560450688316,-0.40092800555952823,0.03244484570806538,-0.1011247221350201,0.058400089102705194
104,-3.1295790107995067,-0.5418813426419575,0.030422351265364973,0.11973112164565275,0.09358983173902952
105,-3.1404166376523457,-0.37211955754002146,0.03281697369827803,-0.12585093505069475,0.061323349381809826
106,-3.147859028803146,-0.5309192723838894,0.030299954997264136,0.12186684234790746,0.13847807597293013
107,-3.158477414250824,-0.27422335386946756,0.032737291844222284,-0.2540934732546714,0.10227978469854854
108,-3.163961881328213,-0.6238457023704818,0.027655422379128856,0.2796820936547419,0.13738619459122392
109,-3.176438795375623,-0.40493168068038143,0.033249064252223695,-0.04043371632887649,0.030281432207473986
110,-3.1845374289892305,-0.4780303810879405,0.032440389925646164,0.07892715579486385,0.05989773683917968
111,-3.1940980366109892,-0.3553356926056477,0.034018933041543443,-0.09548224255856884,0.028196253569489137
112,-3.201204750463102,-0.43229837108387853,0.032109288190372065,0.029894617934626125,0.0051806271127189316
113,-3.2098507178847795,-0.4210308991731286,0.03270718054906459,0.022440630619009,0.0423114990694512
114,-3.218271335868242,-0.32322539269364636,0.03315599316144477,-0.11457496808560602,0.06812247945018411
115,-3.224735843722115,-0.5260429757324504,0.030864493799732648,0.1992302768245367,0.16633159121935467
116,-3.235256703236764,-0.21262350235867877,0.034849099336223384,-0.26160230393260075,0.052610385078065744
117,-3.239509173283938,-0.44172069707428185,0.029617053257571368,0.09207839878382418,0.05364460341667135
118,-3.2483435872254236,-0.32253719357643407,0.03145862123324785,-0.07791231332942655,0.029579816006742688
119,-3.2547943310969525,-0.41148309638873404,0.02990037496665932,0.06468783690024646,0.0022711867853349274
120,-3.2630239930247273,-0.4064882306136234,0.031194131704664247,0.06598828760244924,0.033319750568168195
121,-3.271153757637,-0.32637618300974486,0.03251389745671323,-0.044951734902062904,0.011568457968252127
122,-3.2776812812971947,-0.3612050095450133,0.03161486275867197,0.01682129447526643,0.04694904980005724
123,-3.284905381488095,-0.2345897562103347,0.031951288648177305,-0.16371345814031865,0.051274066665330305
124,-3.2895971766123018,-0.44171616919329687,0.028677019485370932,0.15620966629664243,0.07967841445301302
125,-3.298431499996168,-0.2632793694192167,0.03180121281130378,-0.10290559670837482,0.03306352412245456
126,-3.303697087384552,-0.3841085319996633,0.02974310087713629,0.08759448818549143,0.04953796941825131
127,-3.3113792580245454,-0.2574024285447555,0.03149499064084612,-0.09363742267122327,0.03116807094130179
128,-3.3165273065954404,-0.3740579487828947,0.029622242187421655,0.09051707540588019,0.033339585379189414
129,-3.324008465571098,-0.28656568734674853,0.03143258369553926,-0.03195607599837365,0.019069713261728308
130,-3.329739779318033,-0.35160681724168213,0.030793462175571787,0.07479708493397753,0.002157370369239262
131,-3.336771915662867,-0.35809205639844727,0.03228940387425134,0.09357217904572354,0.024348200441825896
132,-3.343933756790836,-0.2914268287600216,0.03416084745516581,0.0031178974484025457,0.007616039835978637
133,-3.3497622933660365,-0.2664098802952922,0.03422320540413386,-0.02434429607143727,0.02425005920486026
134,-3.3550904909719423,-0.3553307890806555,0.03373631948270511,0.11901862317908017,0.05857962259905314
135,-3.3621971067535554,-0.19250380279012486,0.036116691946286715,-0.11516628300024535,0.03172967497961887
136,-3.366047182809358,-0.3495573802637983,0.03381336628628181,0.13087645171342221,0.027931292675942247
137,-3.3730383304146336,-0.270743309708852,0.03643089532055025,0.022662158564314902,0.029733099096346763
138,-3.3784531966088105,-0.16372505724417774,0.03688413849183655,-0.12705039097200305,0.013972964268044664
139,-3.381727697753694,-0.24467234379552766,0.034343130672396485,0.0051294334233886185,0.015749967414534077
140,-3.3866211446296046,-0.1823083686455003,0.03444571934086426,-0.07826647256212878,0.01709371319494237
141,-3.3902673120025146,-0.2725197682833711,0.032880389889621685,0.06709539641944291,0.019601290714063507
142,-3.395717707368182,-0.20203084774385133,0.03422229781801054,-0.02891574141361883,0.002810761463930586
143,-3.3997583243230594,-0.21600556071390564,0.03364398298973816,0.002093445965847842,0.005373445828155293
144,-3.4040784355373375,-0.24076602272183636,0.03368585190905512,0.049102585934528625,0.021921958617817105
145,-3.408893755991774,-0.15159527036546572,0.03466790362774569,-0.07467589322379022,0.02199786421633439
146,-3.411925661399083,-0.29055086492795923,0.033174385763269885,0.1438225790678928,0.08141445438927583
147,-3.417736678697642,-0.011386566250170982,0.036050837344627745,-0.26494198596378565,0.006945384909481655
148,-3.4179644100226456,-0.3011650958012419,0.03075199762535203,0.1800400286419377,0.07373444495262478
149,-3.4239877119386706,-0.05609441977823912,0.03435279819819079,-0.17835251691263704,0.01141676552359164
150,-3.425109600334235,-0.23007248823086807,0.030785747859938047,0.09255835166184467,0.025999978417768483
151,-3.4297110500988524,-0.11821713653978323,0.03263691489317494,-0.06609559270497961,0.01000192045670426
152,-3.432075392829648,-0.19917648305427005,0.03131500303907535,0.06487230595850779,0.025148858599157588
153,-3.4360589224907336,-0.07459936341155145,0.0326124491582455,-0.11269665174665391,0.008899627074257451
154,-3.4375509097589645,-0.1839718878533822,0.030358516123312425,0.06086125904000436,0.03094931163545159
155,-3.441230347516032,-0.017788302658620136,0.03157574130411251,-0.17937522375425827,0.0036584971673172557
156,-3.4415861135692043,-0.1558368334980725,0.027988236829027346,0.03687607785975433,0.011186979851300903
157,-3.4447028502391657,-0.08544522349741489,0.028725758386222433,-0.06044251696707499,0.008611476259358994
158,-3.4464117547091138,-0.18111466627379774,0.027516908046880933,0.09144665519747767,0.031575909358206096
159,-3.4500340480345897,-0.007434965933343335,0.029345841150830485,-0.16088532133330202,0.0021697704247732315
160,-3.4501827473532565,-0.1514084796909629,0.026128134724164444,0.0636084048404216,0.013842353956425415
161,-3.453210916947076,-0.06085761878674781,0.027400302820972878,-0.06449072862736066,0.0036129948102445286
162,-3.454428069322811,-0.11650642978050099,0.026110488248425663,0.027005836018473686,0.013326665141038106
163,-3.456758197918421,-0.004102639174361641,0.026650604968795136,-0.1338667677277403,0.0007140017755217672
164,-3.4568402507019083,-0.07287042463874396,0.02397326961424033,-0.022917368960955378,0.003382366313789148
165,-3.4582976591946832,-0.11785822853434694,0.023514922235021222,0.05159241251802864,0.010853660928155186
166,-3.46065482376537,-0.02653081503219526,0.024546770485381793,-0.0784480847263853,9.662322005759057e-06
167,-3.461185440066014,-0.026569337778521673,0.022977808790854086,-0.0711742922051048,0.0014014737641058384
168,-3.461716826821584,-0.07277337941644074,0.02155432294675199,0.004868356301029345,0.000736172058428962
169,-3.463172294409913,-0.08298137388627246,0.021651690072772577,0.02651327153001676,0.003004683368644927
170,-3.4648319218876384,-0.047446538949938506,0.022181955503372913,-0.02041138789732738,0.0022281936482934726
171,-3.4657808526666374,-0.0927011627377434,0.021773727745426366,0.05397480831018264,0.0036636302356001056
172,-3.467634875921392,-0.05340977924913514,0.02285322391163002,0.001452673569093746,0.007197599554691849
173,-3.4687030715063747,0.07789522395057605,0.022882277383011896,-0.18873513798297614,0.011952149470227299
174,-3.467145167027363,-0.09064439193540288,0.019107574623352372,0.07073490589198705,0.011171601385068574
175,-3.468958054866071,0.03373984023752351,0.020522272741192112,-0.1101900988330396,5.211027424119257e-05
176,-3.4682832580613203,0.031676488029195586,0.01831847076453132,-0.10106259757815697,0.0014863560731676652
177,-3.4676497283007364,-0.02212677150889604,0.01629721881296818,-0.014985919612036006,0.0007132621818403344
178,-3.4680922637309144,-0.05286975368902021,0.01599750042072746,0.03591360004266751,0.002653349941736215
179,-3.4691496588046946,-0.10362039156133476,0.016715772421580812,0.11673288049700918,0.01191084092409414
180,-3.4712220666359213,0.014332402632846422,0.019050430031520994,-0.05525738462146,0.00034688741051690187
181,-3.4709354185832644,-0.01456887734864016,0.017945282339091793,-0.0063128433654026095,0.0009190710314813573
182,-3.471226796130237,0.045529696898464506,0.01781902547178374,-0.09117055998290594,0.005145966375752718
183,-3.4703162021922678,-0.07603037029009724,0.01599561427212562,0.09637910972221814,0.004558582044854261
184,-3.4718368095980696,-0.014189721910592971,0.017923196466569983,0.008332513855701953,0.0003990102333132682
185,-3.4721206040362813,0.013738670129758906,0.01808984674368402,-0.028284207936993634,0.0009648200363785711
186,-3.4718458306336863,0.08906335630934013,0.017524162584944148,-0.1359346257496515,0.02429920256772435
187,-3.4700645635074996,-0.19719731694410458,0.014805470069951117,0.2985422937334913,0.058886350703098785
188,-3.4740085098463815,0.11544562049198476,0.020776315944620944,-0.16601806522648038,0.020017099165581902
189,-3.4716995974365417,-0.06583527921425789,0.017455954640091337,0.11195239575256605,0.00659886017271283
190,-3.473016303020827,0.03989066255918007,0.019695002555142657,-0.04148056564272021,0.003142273873017999
191,-3.4722184897696433,-0.04105219821381487,0.018865391242288254,0.0857001348137093,0.003812347411073595
