,X,v,theta,theta_dot,energy
0,0.0,-2.0,0.8726646259971648,0.0,1.2
1,-0.04,-1.4455050362203372,0.8726646259971648,-0.30941667224975095,0.8727472398832247
2,-0.06891010072440674,-0.8909414669481055,0.8664762925521697,-0.6188994926403715,0.5455736767242272
3,-0.08672893006336885,-0.33595016212479134,0.8540983026993623,-0.93390466621657,0.21847975760407745
4,-0.09344793330586468,0.219835424114168,0.8354202093750309,-1.2598770613681762,0.10649287310393674
5,-0.08905122482358131,0.7662325529829854,0.8102226681476674,-1.5916919735703532,0.4293201012794334
6,-0.07372657376392161,1.324778360951512,0.7783888286762604,-1.9562459668431087,0.6396211315991173
7,-0.047231006544891374,1.7983016725857537,0.7392639093393982,-2.255574204392028,1.0326038364671888
8,-0.011264973093176298,2.3611758721126748,0.6941524252515576,-2.6814096668490865,1.175015213666438
9,0.0359585443490772,2.849990262169501,0.6405242319145759,-3.0568791285401713,1.6416690827764735
10,0.09295834959246721,3.4190612415628645,0.5793866493437725,-3.565586866602442,1.3547234305514382
11,0.16133957442372449,3.813532653148571,0.5080749120117236,-3.8997583959643447,0.7637284419539286
12,0.2376102274866959,3.614273458581435,0.4300797440924367,-3.495594544449157,0.12202300870594868
13,0.3098956966583246,3.579915269621151,0.36016785320345357,-3.3261693063613333,0.648058540045013
14,0.3814940020507476,3.3966868497441243,0.29364446707622693,-2.9653464087244976,0.25822601263388734
15,0.4494277390456301,3.3185528967751545,0.23433753890173697,-2.768066095281381,0.5600536584991026
16,0.5157987969811332,3.1467348775653,0.17897621699610936,-2.4491167519908092,0.33945407007653267
17,0.5787334945324392,3.0364643277172805,0.12999388195629316,-2.234014505243265,0.676022872939397
18,0.6394627810867848,2.810855270768153,0.08531359185142787,-1.8603455668274265,0.11832710086094506
19,0.6956798865021478,2.8522439908545243,0.04810668051487934,-1.8971510702747854,0.6420078969683514
20,0.7527247663192383,2.6253207775018748,0.010163659109383633,-1.5430221330557687,0.1384912614437365
21,0.8052311818692759,2.678076328692304,-0.020696783551731743,-1.619163308308546,0.7077835697204173
22,0.8587927084431219,2.4132056534795563,-0.05308004971790266,-1.228026806786524,0.08837192706744224
23,0.907056821512713,2.4504507968930507,-0.07764058585363315,-1.299414044544684,0.5797467069956376
24,0.956065837450574,2.215041553126487,-0.10362886674452683,-0.9701673463175188,0.1327989057656189
25,1.0003666685131039,2.2760456682585346,-0.1230322136708772,-1.0915950045624272,0.343477768280339
26,1.0458875818782745,2.1273334159060666,-0.14486411376212574,-0.9062930679287114,0.4577732888386565
27,1.0884342501963957,1.915555664074226,-0.16298997512069996,-0.6343950719738116,0.17174476678682601
28,1.1267453634778803,1.8291661027449253,-0.1756778765601762,-0.5542353411515987,0.2416359270994375
29,1.163328685532779,1.701218045459776,-0.18676258338320817,-0.4166512969859079,0.3073789919691971
30,1.1973530464419744,1.526022322486784,-0.19509560932292633,-0.21301711449009686,0.2632698777280972
31,1.22787349289171,1.3598319297503065,-0.19935595161272826,-0.02545562502685514,0.15239084456835525
32,1.2550701314867163,1.2534969700342136,-0.19986506411326535,0.07266456609820966,0.024414285431942604
33,1.2801400708874007,1.2751769906918096,-0.19841177279130115,-0.01757800322968245,0.2909593055027338
34,1.3056436107012368,1.0558285722198968,-0.1987633328558948,0.2470384093063634,0.08882957374303378
35,1.3267601821456347,1.1395871495680505,-0.19382256466976752,0.06582175643916091,0.1082189041799712
36,1.3495519251369958,1.0501308002706091,-0.1925061295409843,0.14086597702652565,0.11569839805203108
37,1.370554541142408,1.1593760141680376,-0.1896888100004538,-0.07622273511725167,0.3344268148345047
38,1.3937420614257687,0.8805091213258709,-0.1912132647027988,0.27913986462319973,0.09177515002509223
39,1.411352243852286,0.983167445004444,-0.18563046741033482,0.0720841421202098,0.11712159114619673
40,1.4310155927523749,0.8702077508618271,-0.1841887845679306,0.184350261454759,0.09686187195106842
41,1.4484197477696115,0.9800895245097732,-0.18050177933883543,-0.031530283430404066,0.10027474114745748
42,1.468021538259807,0.8828911610054027,-0.18113238500744352,0.059118768704575206,0.185994904342711
43,1.485679361479915,0.6809972208511517,-0.17995000963335203,0.30404309889222514,0.08323856484019236
44,1.4992993058969382,0.8001407713558578,-0.17386914765550754,0.07559331879747055,0.20431358480860184
45,1.5153021213240554,0.5550503845213497,-0.17235728127955813,0.38682561662977744,0.1503789955484525
46,1.5264031290144824,0.8132088416469839,-0.1646207689469626,-0.04509697505456339,0.10381922749349708
47,1.542667305847422,0.6909045465527472,-0.16552270844805386,0.08769903960315939,0.08432119022964084
48,1.556485396778477,0.8113887544749299,-0.16376872765599068,-0.13899893874063826,0.17468528916096085
49,1.5727131718679757,0.6024325232054416,-0.16654870643080344,0.12230853742137285,0.004976125492232293
50,1.5847618223320845,0.5968001589255224,-0.16410253568237598,0.08190091664247931,0.01601183326646264
51,1.596697825510595,0.6250703024629939,-0.16246451734952638,-0.00796449519756709,0.15739426468117715
52,1.609199231559855,0.38202331953471624,-0.16262380725347772,0.3042504619235311,0.07179063465079431
53,1.6168396979505493,0.560968920647289,-0.15653879801500709,-0.0082273283258959,0.008068174370191927
54,1.628059076363495,0.5771895840806842,-0.15670334458152502,-0.07809550179626222,0.10008445407024386
55,1.6396028680451087,0.4094940617631576,-0.15826525461745025,0.12448319301972009,0.020141180113716885
56,1.647792749280372,0.36446577224010246,-0.15577559075705585,0.1448455120783892,0.00445519399199916
57,1.655082064725174,0.37835284145964376,-0.15287868051548806,0.07865411011508022,0.0068515725094269115
58,1.6626491215543668,0.39798089535574366,-0.15130559831318646,0.004783961809284212,0.06252406803584089
59,1.6706087394614817,0.24717989863081355,-0.15120991907700077,0.18408682489433448,0.04960934665888359
60,1.675552337434098,0.4384568918733318,-0.14752818257911407,-0.1438413296301192,0.155062684909366
61,1.6843214752715645,0.09089463895855104,-0.15040500917171645,0.3286228030123346,0.02780009399289374
62,1.6861393680507355,0.34924488423757954,-0.14383255311146975,-0.09858012979193626,0.03035324025362448
63,1.693124265735487,0.2655222056361024,-0.14580415570730848,-0.01643402062050149,0.05856681387325874
64,1.698434709848209,0.05212028682381817,-0.1461328361197185,0.257557669968134,0.007826606801095643
65,1.6994771155846855,0.17384478341584364,-0.14098168272035583,0.0341067047009776,0.001188964855705463
66,1.7029540112530024,0.18244142520709264,-0.14029954862633628,-0.01997176783021415,0.013684462159337512
67,1.7066028397571442,0.11098910903582916,-0.14069898398294056,0.04504070750364801,0.012603892899303836
68,1.7088226219378608,0.004330908448583082,-0.1397981698328676,0.16221789208928872,0.0007016750778369455
69,1.7089092401068324,0.0650605113538002,-0.13655381199108182,0.031045274617265417,0.0026765386085439015
70,1.7102104503339084,0.027753599916698853,-0.13593290649873652,0.04646253935865814,0.0024083730964322607
71,1.7107655223322424,-0.04894278592256667,-0.13500365571156336,0.1206045578208399,0.0003373503541757351
72,1.709786666613791,-0.05458883497154196,-0.13259156455514656,0.08942595349577984,0.002718457484997197
73,1.7086948899143601,-0.0003235352985750742,-0.13080304548523097,-0.03012533430695749,0.00016394076886285254
74,1.7086884192083887,-0.09349352198222441,-0.13140555217137012,0.0700892560827015,0.005300521717868205
75,1.7068185487687442,-0.14880699764227864,-0.13000376704971608,0.11382201344475729,0.007369113079677457
76,1.7038424088158985,-0.09699007986241677,-0.12772732678082094,-0.0013610063760428615,0.008436431045813816
77,1.7019026072186503,-0.17988695809139427,-0.1277545469083418,0.08452157543989018,0.01472748023785407
78,1.6983048680568225,-0.09657178904922492,-0.12606411539954399,-0.07689046002237161,0.031623082913548865
79,1.696373432275838,-0.40282784097894714,-0.12760192459999142,0.34188338689927517,0.11171884373481403
80,1.688316875456259,-0.12002519710309018,-0.12076425686200593,-0.11628500850568596,0.028193086938527373
81,1.6859163715141972,-0.33764700521055024,-0.12308995703211964,0.17235179257254696,0.06847860066232007
82,1.6791634314099861,-0.13359895879668163,-0.1196429211806687,-0.16750166698115632,0.042669772770174766
83,1.6764914522340526,-0.4265110519644737,-0.12299295452029183,0.233634409722473,0.08394727837238455
84,1.6679612311947631,-0.2281005599256544,-0.11832026632584236,-0.09780193899787615,0.07305377335021739
85,1.66339921999625,-0.5326370627308699,-0.12027630510579988,0.3211039332278404,0.11286361121575177
86,1.6527464787416326,-0.31865499318361656,-0.11385422644124307,-0.03282634471556434,0.051850973085057636
87,1.6463733788779602,-0.4749031911488898,-0.11451075333555435,0.16662766171944549,0.027536578223706545
88,1.6368753150549824,-0.4158545421437179,-0.11117820010116544,0.04504213597865481,0.025317017338198553
89,1.628558224212108,-0.4739078121243748,-0.11027735738159235,0.09896532023397762,0.003375825625077625
90,1.6190800679696205,-0.4793511297503554,-0.1082980509769128,0.07472483000171738,0.014893971859645676
91,1.6094930453746132,-0.4473097246784419,-0.10680355437687844,-0.004833130661357626,0.07090123152044762
92,1.6005468508810443,-0.6002269076194392,-0.10690021699010559,0.1918950603013411,0.16657665550838252
93,1.5885423127286555,-0.3242149352044844,-0.10306231578407876,-0.25112836143548434,0.11461158271157923
94,1.582058014024566,-0.6557132775874113,-0.10808488301278844,0.21323393840768334,0.15157199013960126
95,1.5689437484728177,-0.42549383721429146,-0.10382020424463478,-0.16179517864312293,0.09504081185111911
96,1.5604338717285318,-0.638086773958873,-0.10705610781749725,0.12490883674655379,0.07553879609104965
97,1.5476721362493544,-0.5201363740470221,-0.10455793108256617,-0.08241826658675824,0.10581469758001262
98,1.537269408768414,-0.7155558128513806,-0.10620629641430133,0.17842600178763976,0.1914844435670546
99,1.5229582925113865,-0.4502135329630435,-0.10263777637854854,-0.24851075894578525,0.19504512056658294
100,1.5139540218521257,-0.8608147694613968,-0.10760799155746424,0.33402727619693673,0.2968980775602659
101,1.4967377264628978,-0.5170857249963305,-0.1009274460335255,-0.21015974594873688,0.17110760326529126
102,1.486396011962971,-0.8324294383038526,-0.10513064095250024,0.2308263986752207,0.25257689525147553
103,1.469747423196894,-0.5314014210404374,-0.10051411297899583,-0.24907410573210897,0.27248264261239846
104,1.4591193947760854,-1.019490525636542,-0.10549559509363801,0.44986284419932143,0.4142027612264448
105,1.4387295842633545,-0.6138931874427366,-0.09649833820965158,-0.1861089910408784,0.29337485683078013
106,1.4264517205144998,-1.072139050471809,-0.10022051803046915,0.4697354201648475,0.5189503622876775
107,1.4050089395050636,-0.5893087063985083,-0.0908258096271722,-0.2802914554021245,0.19046898789689506
108,1.3932227653770934,-0.8965154389021555,-0.09643163873521468,0.1519531730260334,0.07588960263396036
109,1.3752924565990503,-0.8119773577917246,-0.09339257527469401,-0.0025717945631217876,0.038629409684872065
110,1.3590529094432158,-0.7642686220944651,-0.09344401116595645,-0.10124055180819234,0.10985749120750085
111,1.3437675370013265,-0.9022497821264813,-0.0954688222021203,0.07739565335516001,0.07121265270551212
112,1.3257225413587967,-0.823638887179205,-0.0939209091350171,-0.0680089515859519,0.05509892907282988
113,1.3092497636152127,-0.887281660656148,-0.09528108816673614,-0.0005377023902963518,0.02979020455375488
114,1.2915041304020898,-0.9186575608272771,-0.09529184221454207,0.018342401428708927,0.09332445647396588
115,1.2731309791855443,-0.8181660592677394,-0.09492499418596789,-0.15968440228733577,0.19686587410298015
116,1.2567676580001894,-1.0493582303191795,-0.0981186822317146,0.15767655999693414,0.4001898249695364
117,1.235780493393806,-0.6736149737546376,-0.09496515103177593,-0.43202809146341375,0.3646771621273807
118,1.2223081939187133,-1.185221268872455,-0.1036057128610442,0.30404574791408373,0.35659805520467025
119,1.1986037685412643,-0.887011202073955,-0.09752479790276253,-0.1712763417530796,0.13624025194546427
120,1.1808635444997853,-1.0340732859458848,-0.10095032473782412,0.019641713710919967,0.2148779820148109
121,1.1601820787808677,-0.8298834132926755,-0.10055749046360572,-0.31471276171746565,0.2385346032040798
122,1.1435844105150141,-1.1039527660213204,-0.10685174569795504,0.06480041225673383,0.09536426914091338
123,1.1215053551945877,-1.0180023311447095,-0.10555573745282036,-0.09474461831623776,0.033174160409972175
124,1.1011453085716936,-1.0481356914115665,-0.10745062981914512,-0.080771943769635,0.030411937931270016
125,1.0801825947434622,-1.0747941179389893,-0.10906606869453782,-0.07254465489928848,0.08524384538389095
126,1.0586867123846824,-1.1503195185199744,-0.11051696179252359,0.008068419469429669,0.05385538382782735
127,1.035680322014283,-1.1030991144333973,-0.11035559340313499,-0.09475594858755015,0.09319216105222
128,1.013618339725615,-1.1835618293446946,-0.11225071237488599,-0.007174789429985742,0.20551060687503547
129,0.9899471031387213,-1.012766323826408,-0.1123942081634857,-0.2946881440291652,0.23623604704172035
130,0.9696917766621931,-1.2355902730196795,-0.11828797104406902,0.0044645203733477135,0.06406981512127338
131,0.9449799712017994,-1.1833657132574862,-0.11819868063660206,-0.10802053250927691,0.15158064513177744
132,0.9213126569366498,-1.3060187336821278,-0.1203590912867876,0.04000575860567261,0.23318282323819425
133,0.8951922822630072,-1.1300638825114455,-0.11955897611467414,-0.2573173226235098,0.16339331299148668
134,0.8725910046127783,-1.26785655870936,-0.12470532256714434,-0.08717044885027092,0.007800548237876924
135,0.847233873438591,-1.2720666744636797,-0.12644873154414976,-0.11747272738112147,0.12060324018148982
136,0.8217925399493174,-1.3622821668516945,-0.12879818609177218,-0.020306845595425504,0.15294624627691408
137,0.7945468966122835,-1.2511294181625252,-0.1292043230036807,-0.22341700558490457,0.23829444796481794
138,0.769524308249033,-1.4334165372990284,-0.1336726631153788,0.009854082920953633,0.06134178315513858
139,0.7408559775030524,-1.389815625019579,-0.1334755814569597,-0.09414667703973414,0.13685692894335993
140,0.7130596650026608,-1.4835809844453702,-0.1353585149977544,0.006124942849571366,0.0861545182165609
141,0.6833880453137534,-1.425075182791061,-0.13523601614076297,-0.12050502535559073,0.024682531206158428
142,0.6548865416579321,-1.4063524569551642,-0.1376461166478748,-0.1879710011412633,0.1686359767743305
143,0.6267594925188289,-1.5205366095125412,-0.14140553667070005,-0.05865504260436141,0.03265274523165644
144,0.5963487603285781,-1.5394230149414738,-0.14257863752278727,-0.07204301533769117,0.1332582624373119
145,0.5655603000297487,-1.6215602217970284,-0.1440194978295411,0.008136369519673961,0.04160001260941907
146,0.5331290955938081,-1.6445228607195215,-0.14385677043914763,2.8221800656258456e-05,0.11473173424158739
147,0.5002386383794176,-1.7104533581127492,-0.1438562060031345,0.05575425474151155,0.006670623142807628
148,0.46602957121716265,-1.7046174232892124,-0.14274112090830426,0.004942775602598565,0.15782617446886532
149,0.4319372227513784,-1.7928084181598571,-0.1426422653962523,0.09406035882586075,0.05872320657548242
150,0.39608105438818125,-1.758810262200034,-0.14076105821973509,0.0017863043035218074,0.12826785931655776
151,0.3609048491441806,-1.8278719040444449,-0.14072533213366464,0.0631069610136426,0.17097326494903545
152,0.3243474110632917,-1.9171496937757533,-0.1394631929133918,0.15446298886217666,0.007949482800870444
153,0.2860044171877766,-1.911127068270556,-0.13637393313614826,0.10464737062512575,0.29335319935663307
154,0.24778187582236547,-2.0591206065042327,-0.13428098572364575,0.28460682904299,0.46437134309799594
155,0.20659946369228083,-2.2783387201342857,-0.12858884914278595,0.5711137727268023,0.3316760199408675
156,0.1610326892895951,-2.4200369105869908,-0.11716657368824991,0.7442052113921295,0.1295653948362108
157,0.11263195107785529,-2.4713524864671035,-0.10228246946040732,0.7862826219261299,0.29639921773656913
158,0.06320490134851321,-2.5885859712033477,-0.08655681702188472,0.9311951631613488,0.3730083969649011
159,0.011433181924446256,-2.444590080067423,-0.06793291375865775,0.690594003190673,0.5778373890404698
160,-0.037458619676902206,-2.6771747522817506,-0.054121033694844285,1.0187093895757071,0.3497802135393462
161,-0.09100211472253722,-2.546775453358879,-0.033746845903330144,0.8074930170640319,0.11325050806465448
162,-0.1419376237897148,-2.5022992343252684,-0.017596985562049507,0.730896984095652,0.19065791551855094
163,-0.19198360847622017,-2.426722934055048,-0.002979045880136467,0.6123768383499625,0.1223968404709933
164,-0.24051806715732113,-2.3769034541965652,0.009268490886862784,0.5367721119689433,0.27477720330538585
165,-0.2880561362412524,-2.490986065536026,0.02000393312624165,0.7106135761439321,0.308752572939487
166,-0.3378758575519729,-2.368753758116067,0.03421620464912029,0.5331825620226718,0.16488184725145855
167,-0.3852509327142943,-2.3006297339226514,0.04487985588957373,0.44111393839096436,0.06451869693914963
168,-0.4312635273927473,-2.328860019597823,0.053702134657393014,0.49660697657043273,0.2072240590879194
169,-0.47784072778470377,-2.241975287794467,0.06363427418880167,0.3822486000450966,0.08127795436353728
170,-0.5226802335405931,-2.2072424224887985,0.0712792461897036,0.3489506029470566,0.09681826271792113
171,-0.5668250819903691,-2.251339310296362,0.07825825824864474,0.4358663299784087,0.37572119563525885
172,-0.6118518681962963,-2.088257538968051,0.08697558484821291,0.21497681908580624,0.31859568217988443
173,-0.6536170189756574,-2.2389526821147303,0.09127512122992903,0.4657036887133456,0.28747540702088015
174,-0.698396072617952,-2.1138554896665163,0.10058919500419594,0.3056366501757478,0.37603473957781414
175,-0.7406731824112823,-1.9407133526028546,0.1067019280077109,0.0767596276913805,0.29714220340846165
176,-0.7794874494633395,-2.0917489416278134,0.10823712056153852,0.33333541897218133,0.4799427701221649
177,-0.8213224282958957,-1.8679959630545653,0.11490382894098214,0.031429644627904596,0.26106261044876317
178,-0.858682347556987,-2.0059470358190876,0.11553242183354023,0.27069918013714933,0.36133279104476
179,-0.8988012882733688,-1.8309368201018434,0.12094640543628322,0.04382492156320997,0.3455987166129952
180,-0.9354200246754056,-2.0168067498298954,0.12182290386754742,0.3560647325061558,0.5243004313379572
181,-0.9757561596720036,-1.7631351512564934,0.12894419851767053,0.014104775122286417,0.20202928953871369
182,-1.0110188626971335,-1.876657418689406,0.12922629402011626,0.2207791494017428,0.3139386383841712
183,-1.0485520110709217,-1.7146051932806918,0.1336418770081511,0.01761450024109759,0.10168435036982386
184,-1.0828441149365355,-1.774306626433769,0.13399416701297306,0.14554199192837322,0.227910548717258
185,-1.1183302474652108,-1.6505819593065587,0.13690500685154053,0.0008950621921364199,0.2423119135168103
186,-1.151341886651342,-1.7955501984335283,0.13692290809538327,0.2564372045497442,0.43396103457656865
187,-1.1872528906200126,-1.560483347235914,0.14205165218637816,-0.052733309452368204,0.2577999637379918
188,-1.218462557564731,-1.7231853557805834,0.1409969859973308,0.23048438140998406,0.3120336571212971
189,-1.2529262646803427,-1.5476945866552487,0.14560667362553048,0.011176384190295957,0.027739064256278645
190,-1.2838801564134477,-1.5322857604792088,0.1458302013093364,0.030964984548331808,0.013007945249719174
191,-1.314525871623032,-1.5426212696508022,0.14644950100030305,0.08902596803523093,0.20513388773992794
192,-1.345378297016048,-1.4148180373468506,0.14823002036100766,-0.05772435063958643,0.30409682644429925
193,-1.373674657762985,-1.6258862765073627,0.14707553334821594,0.29882636820574326,0.5126731476144413
194,-1.4061923832931322,-1.3182451791125605,0.1530520607123308,-0.11456879505732298,0.21237201147935086
