,X,v,theta,theta_dot,energy
0,0.0,2.0,-0.17453292519943295,0.0,1.0178272547135452
1,0.04,2.4978551684417387,-0.17453292519943295,-0.7864900088720118,0.08108069889895109
2,0.08995710336883478,2.532247527489396,-0.1902627253768732,-0.8883473658578583,0.27221416079472177
3,0.1406020539186227,2.4284942763891206,-0.20802967269403036,-0.7911262596489559,0.30613602489393554
4,0.18917193944640512,2.306855639641227,-0.22385219788700947,-0.6733226855080146,0.3515608561776752
5,0.23530905223922965,2.159765260413263,-0.23731865159716975,-0.5234563534253789,0.09120291148945242
6,0.2785043574474949,2.121490795795866,-0.24778777866567733,-0.5367724005698087,0.15999509240661677
7,0.32093417336341223,2.0507378536513485,-0.2585232266770735,-0.5059908721528763,0.09347853065945318
8,0.3619489304364392,2.09894594457917,-0.268643044120131,-0.651061994273382,0.42070403182894867
9,0.4039278493280226,1.9052675538099813,-0.2816642840055987,-0.4489991856201393,0.18511335124541933
10,0.4420332004042222,1.813786044580998,-0.29064426771800145,-0.39890297041278905,0.21338640337194772
11,0.4783089212958422,1.7024618796649915,-0.29862232712625725,-0.3231716608250933,0.3040400845086475
12,0.512358158889142,1.5318649508131772,-0.30508576034275914,-0.16509741644816903,0.19089486380315415
13,0.5429954579054056,1.414593029387019,-0.3083877086717225,-0.0856229929987942,0.08830757913048565
14,0.571287318493146,1.3580559927108469,-0.31010016853169836,-0.09405391361098375,0.28963347724803246
15,0.5984484383473629,1.1549107518493469,-0.31198124680391803,0.10641453778000429,0.1368353273058531
16,0.6215466533843499,1.0447240739440655,-0.309852956048318,0.17347425851727474,0.21552947355705449
17,0.6424411348632312,0.8503683039985788,-0.30638347087797246,0.3614785512921218,0.00048566122778855145
18,0.6594485009432027,0.8549704455450151,-0.29915389985213003,0.2662227404508729,0.2640506487803367
19,0.6765479098541031,0.563555935770417,-0.2938294450431126,0.5972849942784699,0.021822571795650465
20,0.6878190285695114,0.5315168376136875,-0.2818837451575432,0.5581357545168274,0.1572896003243259
21,0.6984493653217851,0.2607643655277731,-0.27072103006720666,0.8664551728166453,0.0176763453110497
22,0.7036646526323406,0.2068321021037794,-0.25339192661087373,0.8657837879783813,0.016406843431909186
23,0.7078012946744161,0.14508319127483205,-0.2360762508513061,0.8817469058363852,0.001946051703119901
24,0.7107029584999127,0.13788484061395426,-0.2184413127345784,0.8234814239656718,0.020588550503722707
25,0.7134606553121918,0.25548530698934285,-0.20197168425526496,0.5875604148762824,0.031216907864927815
26,0.7185703614519787,0.3660314435020714,-0.1902204759577393,0.36613503412145176,0.05941851314011975
27,0.7258909903220202,0.2174588576417742,-0.18289777527531026,0.5293859448012939,0.015089225366681402
28,0.7302401674748557,0.15906786293088268,-0.17231005637928437,0.562038908032606,0.018752105297977627
29,0.7334215247334733,0.26050653466250784,-0.16106927821863226,0.3617253164783554,0.024592039523846247
30,0.7386316554267235,0.1762205903526397,-0.15383477188906516,0.4393679046370884,0.011542882025028567
31,0.7421560672337763,0.23572596502361692,-0.1450474137963234,0.306114665210194,0.021000736419711348
32,0.7468705865342485,0.15576785954577632,-0.13892512049211952,0.3822978021250059,0.005237579690001315
33,0.749985943725164,0.1282147349052064,-0.1312791644496194,0.3825165653745681,0.02678930024230844
34,0.7525502384232682,0.30950655811631,-0.12362883314212804,0.07443347665401229,0.02067579756449612
35,0.7587403695855944,0.2468569532445391,-0.1221401636090478,0.13143628209190034,0.03666234946414363
36,0.7636775086504852,0.10724607920426632,-0.11951143796720978,0.3034724837610199,0.00882952804623153
37,0.7658224302345705,0.037782479972532895,-0.11344198829198938,0.37187187680833206,0.003839342893262127
38,0.7665780798340212,0.10793703583399533,-0.10600455075582274,0.23403598012106747,0.008426638514473263
39,0.768736820550701,0.04012985036722955,-0.10132383115340139,0.3040688296215377,0.008153220331651842
40,0.7695394175580457,-0.10594560159197342,-0.09524245456097064,0.4923199441298347,0.010020960400439623
41,0.7674205055262062,0.012173668332465512,-0.08539605567837394,0.28798507098688453,0.0011823780569028724
42,0.7676639788928555,-0.03233105693796077,-0.07963635425863624,0.3294229574397289,0.0008055466352258148
43,0.7670173577540963,0.01394058604682022,-0.07304789510984167,0.23684711740471293,0.001041572848147816
44,0.7672961694750327,0.05613868359346926,-0.06831095276174741,0.15226178575138705,0.009197441375508649
45,0.7684189431469021,-0.08516847541992054,-0.06526571704671967,0.34366036695690483,0.00235847131862537
46,0.7667155736385036,-0.051182899686283936,-0.05839250970758157,0.273616037510754,0.001482469261660086
47,0.7656919156447779,-0.01305148790207019,-0.05292018895736649,0.19935876059956148,0.0003039081999569145
48,0.7654308858867365,-0.08637751592653117,-0.04893301374537526,0.29364254936535883,0.009047015552000904
49,0.7637033355682058,0.035133471514378234,-0.04306016275806808,0.0972136721896932,0.00048599664409067423
50,0.7644060049984933,0.04773709170515106,-0.041115889314274214,0.0656699902131089,0.0024545554716123926
51,0.7653607468325964,0.0011174654884629417,-0.039802489510012036,0.12345566353506104,0.0001149228746910323
52,0.7653830961423657,0.018357418684906306,-0.037333376239310816,0.08591737279402288,0.0009634620837554013
53,0.7657502445160638,0.06111396570544584,-0.035615028783430355,0.01085377891966087,4.454680911259761e-06
54,0.7669725238301727,0.06169479196103812,-0.035397953205037136,-0.0004855129877816694,0.003073110338239668
55,0.7682064196693934,0.013592469302677448,-0.03540766346479277,0.06121794599345654,0.0019241735535673213
56,0.7684782690554469,-0.10054165227196035,-0.03418330454492364,0.22190414382888507,0.0165093600249932
57,0.7664674360100077,0.07798399757426355,-0.029745221668345936,-0.055775825421617964,0.0009372520151802311
58,0.768027115961493,0.06629180520050905,-0.030860738176778296,-0.04698910068600058,0.009768265646422683
59,0.7693529520655031,-0.08179776834024889,-0.03180052019049831,0.16596787236740496,0.005545909182294707
60,0.7677169966986982,-0.008484740398906412,-0.028481162743150212,0.046706153164328024,0.00033175444686493055
61,0.7675473018907201,0.04279025742062141,-0.02754703967986365,-0.038547480696589614,0.00538130448887038
62,0.7684031070391325,-0.08473690072156147,-0.02831798929379544,0.14457287621301393,0.0022844115007330783
63,0.7667083690247013,-0.11284159761220623,-0.025426531769535164,0.1783886434480565,0.005505473185334857
64,0.7644515370724572,-0.061196823689877416,-0.021858758900574034,0.09347192792385889,0.005244059252457197
65,0.7632276005986596,0.02895067201423919,-0.019989320342096856,-0.04814297556404368,0.0031003504552425455
66,0.7638066140389443,-0.0837794357547037,-0.02095217985337773,0.11504193547382252,0.0004692286009388031
67,0.7621310253238502,-0.07765166993553219,-0.01865134114390128,0.09969281401907922,0.002251695228811884
68,0.7605779919251396,-0.04734212677958148,-0.016657484863519697,0.04875323057325849,3.2081963211950514e-05
69,0.759631149389548,-0.04779690393717313,-0.015682420252054526,0.04453822759507414,0.004406803799817724
70,0.7586752113108045,0.04635391481548276,-0.014791655700153042,-0.10128107698819216,0.002573301316581001
71,0.7596022896071142,-0.013564655395014613,-0.016817277239916887,-0.015761642017794522,0.002500079659030532
72,0.7593309964992139,-0.18411362371555454,-0.017132510080272778,0.23508158876280927,0.0021224176157661413
73,0.7556487240249028,-0.19580809559753468,-0.012430878305016593,0.24758401064546337,0.009512189628611525
74,0.7517325621129521,-0.14534699344505536,-0.0074791980921073255,0.16824362143531982,0.00589586126983762
75,0.748825622244051,-0.10346761634116927,-0.004114325663400929,0.10322744903164931,0.008505893329821244
76,0.7467562699172277,-0.01939567437432596,-0.002049776682767943,-0.024089004895587005,0.0020535539609537264
77,0.7463683564297411,0.07840851364950133,-0.002531556780679683,-0.17139761265474995,0.006596368395721892
78,0.7479365267027311,-0.012686379736625342,-0.005959509033774683,-0.03549998732919085,3.9245449329155495e-05
79,0.7476827991079986,-0.009923425576422295,-0.006669508780358499,-0.041396430258209195,0.00045455142529418646
80,0.7474843305964701,-0.04739340432732729,-0.007497437385522683,0.012846466763961208,3.82716372442934e-05
81,0.7465364625099236,-0.04648822640596212,-0.007240508050243459,0.009284512102127867,0.0037160266645521623
82,0.7456066979818043,-0.12508366973104101,-0.007054817808200902,0.12504589606396702,0.013598738439141557
83,0.7431050245871835,-0.01386845792648865,-0.0045538998869215615,-0.04384686946706767,0.0008442987689422466
84,0.7428276554286537,-0.06573433092069945,-0.005430837276262915,0.03261229139036563,0.0011739739211656022
85,0.7415129688102398,-0.0834821763050797,-0.004778591448455603,0.05763700856621737,0.007653558705581571
86,0.7398433252841382,-0.17575422607889807,-0.0036258512771312557,0.19463860242114334,0.00856534266353306
87,0.7363282407625602,-0.12563602487102982,0.0002669207712916112,0.1183957968394509,0.01014344361084745
88,0.7338155202651396,-0.043347295828836674,0.002634836708080629,-0.004958817620910758,0.0006226714939041845
89,0.7329485743485629,-0.05732693450348478,0.002535660355662414,0.01678520869816147,0.0035487811702149814
90,0.7318020356584932,-0.1185722914626709,0.002871364529625643,0.1093984321466661,0.015988141690090378
91,0.7294305898292398,0.018694856502664614,0.0050593331725589654,-0.09565726099184975,7.477626979111014e-05
92,0.7298044869592931,0.02370725131721344,0.0031461879527219707,-0.10168831938063821,0.0017496319666068716
93,0.7302786319856374,-0.0657772317365026,0.0011124215651092065,0.03346271861107558,0.004938522712907163
94,0.7289630873509073,-0.14077537283609476,0.0017816759373307182,0.14628691252653714,0.015471318041663122
95,0.7261475798941854,-0.028265175193957423,0.004707414187861461,-0.021954303626618626,0.002975970717870661
96,0.7255822763903063,-0.12754918691869566,0.004268328115329088,0.12835403854179697,0.004923749884820209
97,0.7230312926519323,-0.08814394204058035,0.006835408886165028,0.07050159431135802,0.008979092910829985
98,0.7212684138111207,0.014891108552437415,0.008245440772392188,-0.08203777646308727,0.00030832740324115456
99,0.7215662359821695,0.04172146894793842,0.006604685243130443,-0.11985781685289723,0.0022245016829494767
100,0.7224006653611282,-0.018203074108677407,0.004207528906072499,-0.028031199432004675,0.0009657496966009375
101,0.7220366038789547,0.030110744761993373,0.003646904917432405,-0.09926427640493483,0.0002756180128934689
102,0.7226388187741946,0.040562717187756406,0.0016616193893337085,-0.11386994311687869,0.0002845715894619752
103,0.7234500731179497,0.03269330831157704,-0.0006157794730038651,-0.10157733022239332,0.0007144057235703122
104,0.7241039392841813,0.007877473979205924,-0.0026473260774517314,-0.06453462493479054,5.38427716740979e-05
105,0.7242614887637654,-0.0027092593837075123,-0.003938018576147543,-0.049432893494578245,0.0002106048374553297
106,0.7242073035760912,-0.044109643966540726,-0.004926676446039108,0.01150942738379903,0.0031586299186847425
107,0.7233251106967604,-0.11473943877027053,-0.004696487898363128,0.11600439682407673,0.001736246742006028
108,0.721030321921355,-0.09919804479614663,-0.002376399961881593,0.0913118005936035,0.006125108909016901
109,0.7190463610254321,-0.036293178170964335,-0.0005501639500095231,-0.0037438938446050507,0.0019898693234518985
110,0.7183204974620128,-0.08952602365512521,-0.0006250418269016241,0.07594361410409031,0.006341797191951779
111,0.7165299769889103,-0.017635704091003554,0.0008938304551801823,-0.032075606462800485,0.0008272747139003354
112,0.7161772629070903,-0.05991889501306668,0.0002523183259241725,0.03161194070305376,0.0062180184777128325
113,0.7149788850068289,0.04380787684737208,0.0008845571399852477,-0.1239040305477821,9.530605009279616e-05
114,0.7158550425437764,0.04623081318236804,-0.0015935234709703945,-0.12727837386317992,0.00495495138037979
115,0.7167796588074238,-0.0732677681862118,-0.004139090948233993,0.05150077490396024,0.001064433044636266
116,0.7153143034436995,-0.058566994341205686,-0.003109075450154788,0.02823291376310468,0.0011836187618478136
117,0.7141429635568753,-0.07868083909100697,-0.0025444171748926943,0.0574894683575953,0.0035558904007069072
118,0.7125693467750552,-0.03303813741479696,-0.0013946278077407882,-0.011722420378945914,0.0010795025074027036
119,0.7119085840267593,-0.0643896718479774,-0.0016290762153197064,0.034894815094531816,0.00032399093866808127
120,0.7106207905897998,-0.05933333597028179,-0.0009311799134290701,0.026831373146744976,0.0030939881142325507
121,0.7094341238703942,-0.11126166296122214,-0.00039455245049417056,0.1044500630080388,0.0031737946250482226
122,0.7072088906111698,-0.08218577415275943,0.0016944488096666058,0.060720234772627404,0.0017578004052341062
123,0.7055651751281146,-0.10380163539181995,0.002908853505119154,0.09364214779599023,0.000350914710452328
124,0.7034891424202782,-0.10728252487521737,0.004781696461038959,0.09971866165559404,0.03485777243330714
125,0.7013434919227738,0.22362265726922775,0.00677606969415084,-0.3952276236533927,0.0464031193766908
126,0.7058159450681584,0.0033978978330375387,-0.0011284827789170143,-0.06290591895982844,3.175963826268871e-06
127,0.7058839030248191,-0.0023394167074066727,-0.0023866011581135833,-0.05463172649548362,1.2413910798087747e-05
128,0.7058371146906709,0.00020609647360493892,-0.0034792356880232558,-0.05915164546722288,8.952925366005458e-05
129,0.705841236620143,0.035439179416009325,-0.004662268597367713,-0.1130238432352357,0.001102839986802582
130,0.7065500202084631,-1.4458963424543447e-06,-0.006922745462072427,-0.06123418504047617,9.630025957214196e-07
131,0.7065499912905363,0.0004351862252145416,-0.00814742916288195,-0.06392438843810738,9.99855214928295e-05
132,0.7065586950150406,-0.038934784992011,-0.009425916931644098,-0.007266709326462062,0.0011498128080101788
133,0.7057799993152004,-0.0673685469299415,-0.009571251118173339,0.032610860342313086,0.006797778984265131
134,0.7044326283766016,-0.167888574355186,-0.008919033911327076,0.18057009027478438,0.003529178644256287
135,0.7010748568894979,-0.1893231935899358,-0.005307632105831388,0.21009857910134047,0.03077264260956763
136,0.6972883930176992,-0.022247942358216255,-0.0011056605238045792,-0.042071204264631984,0.0017543524517038482
137,0.6968434341705348,-0.09307414952484427,-0.0019470846090972188,0.06384297741955694,0.0035628581364089518
138,0.6949819511800379,-0.05449822948342088,-0.0006702250607060799,0.005406764529005251,0.0025356883031905746
139,0.6938919865903695,-0.00888991435584096,-0.0005620897701259749,-0.06320273894996335,0.0006468875152359312
140,0.6937141883032527,-0.06253504053235334,-0.001826144549125242,0.017099683219411965,0.004316785346579232
141,0.6924634874926057,-0.13070263400461868,-0.0014841508847370027,0.11881401673464818,0.014097769280999015
142,0.6898494348125133,-0.020915215075749338,0.0008921294499559609,-0.04630327048673606,0.0028507058211235223
143,0.6894311305109982,-0.14174413252558576,-3.3935959778760285e-05,0.135202319586174,0.0018984997668016275
144,0.6865962478604866,-0.128084249527626,0.0026701104319447203,0.11470251792885988,0.01017742836279918
145,0.684034562869934,-0.047312303101995065,0.0049641607905219175,-0.005669958278569601,0.004150515216820035
146,0.6830883168078942,0.037738928109053965,0.004850761624950526,-0.13178577588893164,0.0012277730447548692
147,0.6838430953700753,-5.887432737037429e-05,0.002215046107171893,-0.07366362094155443,0.00011811338632119078
148,0.6838419178835279,0.033729506291382806,0.0007417736883408043,-0.12369484451153234,0.0014168069261385253
149,0.6845165080093555,-0.015459255329998811,-0.0017321232018898424,-0.049693640933868896,3.867454367003423e-06
150,0.6842073229027555,-0.015221464639726375,-0.0027259960205672203,-0.05055957040091616,0.0005871096550759758
151,0.683902893609961,-0.0478765658359946,-0.0037371874285855432,-0.002378542440226755,0.000940570497690259
152,0.6829453622932411,-0.028699599989943755,-0.0037847582773900784,-0.03224252087862885,0.0004964019216763422
153,0.6823713702934422,-0.044700075174709544,-0.004429608694962655,-0.009354696276172917,0.00024318484033818727
154,0.681477368789948,-0.039378894657647226,-0.004616702620486113,-0.018638689442478346,0.0024961958946388267
155,0.680689790896795,-0.0998532163601262,-0.0049894764093356804,0.07071452065444761,0.0009048664647239125
156,0.6786927265695926,-0.09064670512929636,-0.003575185996246728,0.05543802572610972,0.00014318699014506412
157,0.6768797924670067,-0.09218059617833436,-0.002466425481724534,0.0566877451513852,0.013369132562856234
158,0.6750361805434401,0.05341821269434384,-0.0013326705786968298,-0.16243493222843122,0.0049980286045529275
159,0.676104544797327,-0.05248519668624552,-0.004581369223265455,-0.0039717642558929345,0.0038569286745615845
160,0.675054840863602,-0.12386731374193935,-0.004660804508383314,0.10175336981327426,0.0016314517884805965
161,0.6725774945887633,-0.11045241052721347,-0.0026257371121178284,0.08026096198637798,0.0051848714531384996
162,0.670368446378219,-0.06305325456982164,-0.0010205178723902686,0.008390507321186347,0.0009089335796570947
163,0.6691073812868226,-0.048889297994213876,-0.0008527077259665417,-0.013155448681269666,0.006613135189998038
164,0.6681295953269383,0.08149663453487335,-0.001115816699591935,-0.2089849724122263,0.013889711867426583
165,0.6697595280176357,-0.10670174201703059,-0.005295516147836461,0.07298436663718577,0.0011004404705708898
166,0.6676254931772951,-0.11701036362127369,-0.0038358288150927454,0.08689020776348323,0.0009731720461430795
167,0.6652852859048697,-0.12535294159627777,-0.0020980246598230807,0.09827625175805514,0.012113148383715003
168,0.6627782270729441,-0.02756368645442489,-0.00013249962466197786,-0.04902412692254969,0.0024603182049935195
169,0.6622269533438556,-0.10813060011924983,-0.0011129821631129717,0.07178728762431745,0.013128557422449012
170,0.6600643413414706,0.014023696921770065,0.00032276358937337736,-0.11177126113854412,0.0009218360878143027
171,0.6603448152799061,-0.08654375562273602,-0.0019126616333975052,0.03917480231428182,0.0026117303749299938
172,0.6586139401674513,-0.11657692472537903,-0.0011291655871118688,0.08366215138872453,0.009187786554579818
173,0.6562824016729437,-0.037077123521761,0.0005440774406626219,-0.03591944900620135,0.0017724016193014476
174,0.6555408592025085,-0.0817550398912271,-0.00017431153946140514,0.03125737438848464,0.01019868916317321
175,0.6539057584046839,-0.20560931118253797,0.0004508359483082876,0.21698753091067008,0.0032107351986900654
176,0.6497935721810332,-0.22161822918940952,0.004790586566521689,0.2411334512448939,0.027051688952472733
177,0.645361207597245,-0.09640369627104117,0.009613255591419567,0.054722234155414884,0.010466737601479871
178,0.6434331336718242,0.012186841598410006,0.010707700274527865,-0.1053297925744332,2.5401483670630632e-05
179,0.6436768705037924,0.015382583764118708,0.008601104423039201,-0.10697512729586957,0.0008258940101100731
180,0.6439845221790748,-0.061330899814571155,0.00646160187712181,0.010619535230195667,1.6392215647800483e-06
181,0.6427579041827833,-0.06144984744818938,0.006673992581725723,0.012697650688234637,0.0027963474533303934
182,0.6415289072338195,-0.10636261252099274,0.006927945595490416,0.08202743717138697,0.010394342049547414
183,0.6394016549833996,-0.007656787498491621,0.008568494338918155,-0.0639909475193503,0.0007178852022977753
184,0.6392485192334298,-0.0740689981547384,0.007288675388531149,0.03814281805437075,0.006933211270432003
185,0.6377671392703351,0.019336625265469295,0.008051531749618564,-0.09981904388587476,0.0002699829896904603
186,0.6381538717756445,0.00142356843717234,0.006055150871901069,-0.07058320481969188,0.00016304325017586736
187,0.6381823431443879,-0.08779026767400998,0.004643486775507232,0.06501529957330834,0.012958243074654026
