,X,v,theta,theta_dot,energy
0,0.0,2.0,-0.3490658503988659,0.0,0.19526898322895217
1,0.04,2.0990149164717273,-0.3490658503988659,-0.24011930167206966,0.12007157675937159
2,0.08198029832943454,2.0479595835293467,-0.3538682364323073,-0.2687087443832321,0.01532118511621509
3,0.12293949000002147,2.0598324040234983,-0.3592424113199719,-0.3872940132575699,0.14793895262088994
4,0.16413613808049143,1.9944588356953334,-0.3669882915851233,-0.398853638503297,0.5949846558769367
5,0.20402531479439812,1.7083718354055342,-0.37496536435518923,-0.10378692979977067,0.2594028863077402
6,0.2381927515025088,1.5661313114516133,-0.37704110295118465,-0.01292503391950732,0.3254703851553029
7,0.26951537773154105,1.3701640567630944,-0.3772996036295748,0.1521358931704485,0.038045743129160786
8,0.2969186588668029,1.3483211435687719,-0.37425688576616584,0.0742827724844745,0.18688268480717365
9,0.32388508173817837,1.2195496559287635,-0.37277123031647635,0.14658877229901848,0.16365525972234646
10,0.34827607485675366,1.09535477959984,-0.36983945487049597,0.21301270373068798,0.2512785034538563
11,0.3701831704487505,0.8802511296732825,-0.3655792007958822,0.40758102473200736,0.18818577012435994
12,0.3877881930422161,0.6822871166830208,-0.35742758030124205,0.5798017763330667,0.15836317645716372
13,0.4014339353758765,0.4702509957330723,-0.3458315447745807,0.7748944371133478,0.15390500685940112
14,0.410838955290538,0.1788488950168836,-0.3303336560323138,1.0864585586709,0.024930480155053607
15,0.41441593319087566,0.07591972768020457,-0.3086044848588958,1.1371434367361282,0.008258174667374824
16,0.41593432774447975,0.015813470704538785,-0.2858616161241732,1.1337471175316853,0.00980263092021437
17,0.41625059715857055,0.16466807524586047,-0.2631866737735395,0.836622846563783,0.006878148084712628
18,0.41954395866348776,0.13493279348947185,-0.24645421684226382,0.8032032146388502,0.016256290219391678
19,0.4222426145332772,0.23082382054126566,-0.2303901525494868,0.5919866446390257,0.008171888790022465
20,0.4268590909441025,0.26481927759282436,-0.2185504196567063,0.4752037618147527,0.004062663447386764
21,0.432155476495959,0.25398210194267135,-0.20904634442041126,0.42732930838307226,0.03314444471269169
22,0.4372351185348124,0.13877270830634364,-0.20049975825274982,0.5353681421807892,0.02034190225838895
23,0.44001057270093924,0.01984280064378202,-0.18979239540913403,0.6516364734468564,0.006382645493152988
24,0.4404074287138149,0.1492529950241744,-0.1767596659401969,0.40554225170194624,0.019874597799773835
25,0.44339248861429836,0.03614236710786173,-0.168648820906158,0.5208674147262108,0.001548759458711285
26,0.4441153359564556,0.013124837254273915,-0.15823147261163378,0.5055558213254264,0.00016741911244284093
27,0.4443778327015411,0.01076348709169635,-0.14812035618512526,0.4627274239651651,0.0011274109224888179
28,0.444593102443375,0.047596366039571375,-0.13886580770582196,0.3646947496910426,0.0009402868686195594
29,0.44554502976416643,0.06385035723228466,-0.1315719127120011,0.29985300399548664,0.005424828340106327
30,0.4468220369088121,-0.002619667511772658,-0.12557485263209137,0.36012564664146396,0.0013101252989875444
31,0.4467696435585767,-0.09453782955251257,-0.11837233969926209,0.46009516778395093,0.0008897671304071766
32,0.4448788869675264,-0.08112525471016294,-0.10917043634358306,0.4053968421670032,0.0019067516997524519
33,0.44325638187332317,-0.10918689355441684,-0.101062499500243,0.4152063249109657,0.0007719986712947884
34,0.44107264400223484,-0.11609047661223446,-0.09275837300202369,0.3958470393685162,0.0012384138930984
35,0.43875083446999014,-0.10248299107007569,-0.08484143221465337,0.3482916870000742,0.000324262312880042
36,0.4367011746485886,-0.09763598386088053,-0.07787559847465189,0.31613385950111084,0.0015091973938253028
37,0.434748454971371,-0.11419826400370965,-0.07155292128462967,0.3180296939659782,0.0068139037588983665
38,0.4324644896912968,-0.17978435353285566,-0.06519232740531011,0.3951384810490297,0.0030655227987864794
39,0.4288688026206397,-0.16039026385844668,-0.05728955778432952,0.34695617316879473,0.016917543776894188
40,0.4256609973434708,-0.045496275971771374,-0.050350434320953624,0.15806401555000654,4.1656057546654754e-05
41,0.4247510718240354,-0.04583710216159585,-0.04718915400995349,0.14377783313953835,0.0025935524466835164
42,0.42383432978080343,-0.10952196047086395,-0.044313597347162725,0.22533031662583156,0.007282719704272821
43,0.4216438905713861,-0.03733992770502302,-0.0398069910146461,0.10413962356183722,0.0003221008451860176
44,0.42089709201728565,-0.046405502865672424,-0.03772419854340935,0.10602704898599988,0.00017505048807093499
45,0.4199689819599722,-0.041759528307174526,-0.035603657563689356,0.08797476142692243,0.0025662959973764853
46,0.41913379139382867,0.02504447246129962,-0.033844162335150904,-0.022632998846943572,0.0005206313238267852
47,0.41963468084305466,0.004381676282620796,-0.034296822312089775,-0.0016048379830720383,0.0001176234580305965
48,0.4197223143687071,-0.02175737682064416,-0.034328919071751215,0.027499394855746682,0.0018106649100047138
49,0.4192871668322942,-0.10739476740432048,-0.03377893117463628,0.1457890770501065,0.008932224857408737
50,0.4171392714842078,-0.19338075018919826,-0.03086314963363415,0.26476535737486623,0.009742164331688301
51,0.41327165648042385,-0.24534666044351697,-0.025567842486136826,0.33360477568151903,0.03419383151870029
52,0.40836472327155354,-0.10006466747316928,-0.018895746972506445,0.10823688533415629,0.0017014159242534918
53,0.4063634299220902,-0.08234833406615928,-0.01673100926582332,0.0761121102582854,0.003299815747870143
54,0.404716463240767,-0.04130105267963009,-0.015208767060657612,0.009631118411059458,0.006502746250075709
55,0.4038904421871744,-0.19633307799154393,-0.015016144692436423,0.2376810568085557,0.024913709329505568
56,0.3999637806273435,-0.06511216205010531,-0.010262523556265309,0.03645729306948034,0.004173005007720478
57,0.3986615373863414,-0.1291236546188004,-0.009533377694875701,0.1294523467638714,0.007963325709587778
58,0.3960790642939654,-0.06594694723605765,-0.0069443307595982735,0.031888821445443374,0.002741695841596369
59,0.39476012534924426,-0.10731899446518553,-0.006306554330689406,0.09190377912516492,0.00937031083812379
60,0.39261374545994054,-0.01859570540680376,-0.004468478748186107,-0.0430326225850966,0.00034563551354714134
61,0.39224183135180446,-0.03493926180018947,-0.005329131199888039,-0.01983126112718068,9.232727250302659e-05
62,0.39154304611580065,-0.03234962582486157,-0.005725756422431652,-0.02528241708861008,0.0017519049682811123
63,0.3908960535993034,-0.08328937625230276,-0.006231404764203854,0.049442592848257444,0.001077811431457608
64,0.38923026607425737,-0.0961750271777025,-0.005242552907238705,0.06693867282701675,0.0009836279297471939
65,0.3873067655307033,-0.1064038540639404,-0.0039037794506983706,0.08074039881286331,0.015940989644171
66,0.3851786884494245,0.04503518635399015,-0.0022889714744411043,-0.14756413916888783,0.006184814681543788
67,0.3860793921765043,-0.11236258875875307,-0.0052402542578188615,0.08785894797336397,0.0062543957355192985
68,0.38383214040132924,-0.05598138482387786,-0.003483075298351582,0.0017476755497127378,0.002384712237048714
69,0.3827125127048517,-0.014313089225115122,-0.0034481217873573275,-0.061778410781991935,0.0006274527347612111
70,0.3824262509203494,-0.05001753187032289,-0.004683690002997166,-0.009235810992668556,0.003226102289212037
71,0.38142590028294293,-0.11235277954773128,-0.004868406222850537,0.08288903511497624,0.006120582593947284
72,0.3791788446919883,-0.05729120958942576,-0.0032106255205510124,-0.0011336468235711855,0.002901803119763581
73,0.3780330205001998,-0.10661541503376709,-0.0032332984570224363,0.07190835773217298,0.005567377565127096
74,0.3759007121995245,-0.054012227853048336,-0.0017951313023789766,-0.007946598685425355,0.0033177325368000748
75,0.3748204676424635,0.005542794168786558,-0.001954063276087484,-0.09780675610077769,0.00016960967692683886
76,0.37493132352583924,-0.14526321236020495,-0.003910198398103038,0.12782732758119297,0.004626250694227336
77,0.37202605927863514,-0.11284207500541946,-0.001353651846479178,0.07804639792990829,0.013307339361437175
78,0.3697692177785267,-0.23160968369550955,0.00020727611211898787,0.2557996742237946,0.0357046060745453
79,0.3651370241046165,-0.07326475782086442,0.0053232695965948805,0.01834322969062921,0.0007132584208034917
80,0.3636717289481992,-0.06373387803821629,0.0056901341904074644,0.0056121464449362425,0.004991981336289351
81,0.3623970513874349,0.012906436040417593,0.005802377119306189,-0.10767357317982788,0.0006552122497480491
82,0.3626551801082432,0.09260497672500904,0.0036489056557096316,-0.22551348246875713,0.008911918839104327
83,0.3645072796427434,-0.013021956482561478,-0.0008613639936655114,-0.06600136155237801,0.0015100938476220876
84,0.36424684051309214,-0.10496197237216139,-0.0021813912247130715,0.07165537013817427,0.0024240208543167916
85,0.3621476010656489,-0.08167815964892136,-0.0007482838219495861,0.03608840563829206,0.0023249211256784717
86,0.3605140378726705,-0.1100067412557503,-2.6515709183744783e-05,0.0783612707289242,0.007687505424638393
87,0.3583139030475555,-0.03954729913773493,0.001540709705394739,-0.027335688029443847,0.0012628032206127896
88,0.3575229570648008,-0.06977307283560194,0.0009939959448058621,0.01845588717939709,0.0019454538381972815
89,0.35612749560808876,-0.09732089484784281,0.001363113688393804,0.06006983454389698,0.009420958307409825
90,0.3541810777111319,-0.00017230616790787912,0.0025645103792717437,-0.08525215779343537,0.00022306367163422278
91,0.3541776315877737,-0.05397767991950673,0.0008594672234030363,-0.0037903973377172717,0.00018695303322598824
92,0.3530980779893836,-0.05062170873586706,0.0007836592766486909,-0.008571668921353819,1.4864383890028519e-05
93,0.3520856438146662,-0.05091723409039614,0.0006122258982216145,-0.007897985221923767,0.004269359611053038
94,0.3510672991328583,0.030305158905546734,0.0004542661937831391,-0.12955155748013938,0.001850901490891135
95,0.3516734023109692,-0.04365792707733472,-0.0021367649558196485,-0.018473385696581454,0.00372200850639126
96,0.35080024376942254,-0.1252322400417183,-0.0025062326697512776,0.10325959599430616,0.002020404708554228
97,0.3482955989685882,-0.14154896995024777,-0.00044104074986515453,0.12699778235708925,0.024125318582734867
98,0.34546461956958324,0.031807842801454544,0.0020989148972766305,-0.13316707745609335,0.0035699134748080202
99,0.3461007764256123,-0.1034529990603916,-0.0005644266518452365,0.07034081895053107,0.0039676407321296596
100,0.3440317164444045,-0.0648349409835671,0.000842389727165385,0.012247799635594137,0.005580442649758068
101,0.3427350176247332,-0.14954652908551963,0.0010873457198772678,0.13956279925421455,0.0169430967979873
102,0.3397440870430228,-0.03413244072493182,0.0038786017049615585,-0.033238551365676744,0.0006002980156377472
103,0.33906143822852414,-0.05061909808127908,0.0032138306776480236,-0.007368445302116406,0.004012639074470128
104,0.3380490562668986,0.02616420132064863,0.0030664617716056955,-0.12159793500864423,0.001083113711274242
105,0.33857234029331157,-0.025083581187246053,0.0006345030714328109,-0.04382508431794983,0.0004258380387683846
106,0.33807066866956664,-0.04043679998998302,-0.00024199861492618581,-0.020608716859196914,0.002542905117428565
107,0.337261932669767,0.019529677065739576,-0.0006541729521101241,-0.11062957740099724,0.0012328991080961676
108,0.33765252621108177,-0.06340851745669453,-0.002866764500130069,0.013585360928883683,0.006624841961771559
109,0.33638435586194787,0.03956544021000086,-0.002595057281552395,-0.1417177684740448,0.0026361391567559962
110,0.3371756646661479,-0.03804076465286221,-0.005429412651033291,-0.026071799132881948,0.0010359841268315721
111,0.33641484937309063,-0.06372944812077155,-0.00595084863369093,0.010864418645153313,0.003497168017988334
112,0.3351402604106752,-0.00968935347211404,-0.005733560260787864,-0.07194382722920603,0.0013798793038223732
113,0.3349464733412329,-0.11348653311590114,-0.007172436805371984,0.08206372561344502,0.004942228399709062
114,0.3326767426789149,-0.06945310567779184,-0.0055311622931030835,0.013906605044850251,0.0035701581355500867
115,0.33128768056535907,-0.11998440300251446,-0.005253030192206079,0.08807623815579037,0.0014668257978989534
116,0.32888799250530876,-0.10757047550053857,-0.0034915054290902718,0.06791122004392865,0.011234568338082106
117,0.326736582995298,-0.21242246140936016,-0.0021332810282116985,0.22416173974033304,0.02214168371885771
118,0.32248813376711083,-0.10557655285217828,0.002349953766594962,0.0632660574406533,0.0011042451730399108
119,0.32037660271006724,-0.09512043865839773,0.003615274915408028,0.048272815227677235,0.003892766167874196
120,0.3184741939368993,-0.13604143737995011,0.004580731219961573,0.11071680068558767,0.010935987666686743
121,0.3157533651893003,-0.05466805191502257,0.006795067233673326,-0.00999526664582559,0.0030466599883797207
122,0.3146600041509999,-0.10868808936436963,0.006595161900756814,0.07303065323055681,0.01819047309355044
123,0.3124862423637125,0.05964273659530811,0.00805577496536795,-0.17752113087789084,0.005312772997254269
124,0.31367909709561864,-0.04097265694954125,0.004505352347810134,-0.024234565426110438,0.0023983856457203065
125,0.3128596439566278,0.014576004143261233,0.004020661039287925,-0.10623214230419524,0.00020637537976081453
126,0.313151164039493,0.03517454259494676,0.0018960181932040207,-0.13594762907877345,0.0038222628933877794
127,0.3138546548913919,-0.09346175562723932,-0.0008229343883714483,0.05756390044490611,0.002418739156790023
128,0.31198541977884714,-0.06747450553354808,0.0003283436205266739,0.018341095820829198,1.0189873054119178e-05
129,0.31063592966817616,-0.06762839227909989,0.0006951655369432578,0.01866845894941437,0.002277402285852831
130,0.30928336182259414,-0.03436699931112932,0.0010685347159315453,-0.031019239795837896,0.00018044627060170086
131,0.3085960218363715,-0.029461695045067987,0.00044814992001478734,-0.038063042847693414,0.0029066683925928665
132,0.30800678793547015,-0.12038211375665327,-0.0003131109369390809,0.09844932759652864,0.010408815598887077
133,0.3055991456603371,-0.032764896176368075,0.0016558756149914918,-0.033068546945462435,0.002198774367975633
134,0.3049438477368097,0.029810418495705995,0.000994504676082243,-0.1264445630626991,0.001182721786966048
135,0.30554005610672386,-0.018156192201746052,-0.0015343865851717392,-0.05420229827060284,0.0010339358038129187
136,0.30517693226268894,0.030785363170179783,-0.002618432550583796,-0.12806565438866138,0.0027381320995215784
137,0.30579263952609254,-0.0761840590470536,-0.005179745638357024,0.03161811059536826,0.0003436667337410994
138,0.30426895834515144,-0.08059537124084505,-0.004547383426449659,0.0367121517123126,0.01029414666366634
139,0.3026570509203345,-0.20777557890755277,-0.003813140392203407,0.22614356465541496,0.0003675759839192837
140,0.2985015393421835,-0.20953686588765633,0.0007097309009048923,0.2276644153601143,0.03905432829139989
141,0.2943108020244304,-0.01826198693474057,0.005263019208107178,-0.0590391699404714,0.0009615455155003116
142,0.2939455622857356,-0.06312457259234588,0.00408223580929775,0.009801097052888175,0.006068984523478277
143,0.29268307083388867,0.03128148302457273,0.0042782577503555136,-0.1306066324467648,0.000359554232399135
144,0.2933087004943801,0.04506065113999703,0.0016661251014202178,-0.150017391523484,0.00468409186637519
145,0.29420991351718007,-0.07446225833206416,-0.0013342227290494622,0.029756564393588036,0.011400524597239156
146,0.2927206683505388,0.07769077377048145,-0.0007390914411777015,-0.1988650419847721,0.009090738658444859
147,0.2942744838259484,-0.0514875829570218,-0.004716392280873144,-0.005314852680792792,0.002318934047593418
148,0.29324473216680796,-0.0951548654715236,-0.004822689334489,0.05879872838953212,0.0038335946393851304
149,0.2913416348573775,-0.0546445824671575,-0.0036467147666983573,-0.0033838546352936427,0.000360181478631037
150,0.29024874320803434,-0.04817975576546413,-0.00371439185940423,-0.014153161973502925,0.0011034125360499926
151,0.28928514809272504,-0.07017546603878314,-0.0039974550988742885,0.017748147139867585,0.0038087816496306564
152,0.2878816387719494,-0.01655106792279054,-0.0036424921560769367,-0.06386305602980534,0.000744112777619382
153,0.2875506174134936,-0.05381592411945879,-0.004919753276673044,-0.009037032875797123,0.007205328478424729
154,0.28647429893110443,-0.18337850824731367,-0.005100493934188986,0.1838580897452828,0.015848971450807454
155,0.28280672876615814,-0.0949598470995325,-0.0014233321392833295,0.04973228446614569,0.0022607055696513664
156,0.2809075318241675,-0.11873213516848047,-0.00042868644996041567,0.08497222094216358,0.0028934808441249482
157,0.2785328891207979,-0.09415113141524332,0.001270757968882856,0.0479746848878562,0.0017195951169421283
158,0.276649866492493,-0.07592813254907824,0.00223025166663998,0.02101381140113332,0.005857809070412036
159,0.27513130384151147,0.00026647394571328864,0.0026505278946626467,-0.09262212064948716,6.07980095055215e-05
160,0.2751366333204257,0.015269276122071402,0.0007980854816729034,-0.1143469905760877,0.0003621352870858899
161,0.2754420188428671,-0.01982095953063339,-0.0014888543298488504,-0.0614770167531186,0.0011586667006055614
162,0.27504559965225445,0.03018439089549179,-0.0027183946649112223,-0.13692268226891569,0.0010133938569048895
163,0.27564928747016426,-0.011039113341756071,-0.005456848310289536,-0.07588686143112923,0.0017223840607080033
164,0.2754285052033291,-0.12694093043685065,-0.00697458553891212,0.09635897035356607,0.008191891936749076
165,0.2728896865945921,-0.19204978499612146,-0.005047406131840799,0.191969365270697,0.025393072767792162
166,0.2690486908946697,-0.05684148701050187,-0.0012080188264268587,-0.012324429358862188,0.000501594767110358
167,0.2679118611544597,-0.06534935954760848,-0.0014545074136041026,8.221268649583752e-05,0.005757287634279564
168,0.2666048739635075,0.02062775507286861,-0.001452863159874186,-0.12931094785370337,0.0026379113017939
169,0.2670174290649649,-0.1538307679700902,-0.004039082116948253,0.13194941890527537,0.0024193723862367443
170,0.2639408137055631,-0.16973929927863912,-0.001400093738842746,0.15462453430376577,0.0031004062181558515
171,0.2605460277199903,-0.1511293115916875,0.0016923969472325694,0.12629795270894253,0.020637968843090156
172,0.25752344148815653,-0.012665324964582392,0.00421835600141142,-0.08090016532463701,0.00031124158362543734
173,0.25727013498886486,-0.03130608430215259,0.0026003526949186797,-0.051699082109239944,0.0005028766965977093
174,0.2566440133028218,-0.04592058129430218,0.0015663710527338808,-0.02901290790584544,0.0014897570781387394
175,0.2557256016769358,-0.015175870426864514,0.000986112894616972,-0.07466940473129013,0.00170584845008516
176,0.2554220842683985,-0.10481026263551796,-0.0005072752000088306,0.06007203535411054,0.005855694786309726
177,0.25332587901568815,-0.16076780711526142,0.0006941655070733803,0.14385920237173203,0.012711405611869578
178,0.2501105228733829,-0.24118668220374329,0.003571349554508021,0.2646915705838191,0.023887617095149447
179,0.24528678922930805,-0.1395382765185945,0.008865180966184404,0.11326990895090677,0.010053478956294585
180,0.24249602369893616,-0.06668202082285603,0.011130579145202539,0.006596148851913827,0.0031977707610316764
181,0.24116238328247905,-0.019844886995848895,0.011262502122240815,-0.06038287725163122,0.0009112324331300121
182,0.24076548554256208,0.01934833198768087,0.010054844577208191,-0.11585787157523894,0.00014867629080446385
183,0.2411524521823157,0.008904164193440025,0.007737687145703413,-0.09723633731013527,0.00015506739119797362
184,0.24133053546618452,-0.024942235463016223,0.0057929603995007075,-0.04419340033087096,0.0009050046407959483
185,0.2408316907569242,0.007735236329027367,0.004909092392883288,-0.0915056647369744,0.0003105301767669976
186,0.24098639548350476,-0.07705614631082615,0.0030789790981438,0.03712314403983542,0.009550975558552471
