,X,v,theta,theta_dot,energy
0,0.0,2.0,0.0,0.0,1.2
1,0.04,2.5853658536585367,0.0,-0.8780487804878048,0.4842516685703189
2,0.09170731707317073,2.770967390479111,-0.017560975609756096,-1.1564510857186665,0.12858427488108337
3,0.14712666488275294,2.817342567083846,-0.04068999732412942,-1.231165786214527,0.024436063028425773
4,0.20347351622442988,2.826497348205669,-0.06531331304841997,-1.2568461498365677,0.010458551878901563
5,0.2600034631885433,2.823647508660594,-0.09045023604515133,-1.2717689697664931,0.22214015334797402
6,0.31647641336175514,2.7464932102256725,-0.11588561544048119,-1.183066737562481,0.2248613027523235
7,0.3714062775662686,2.666603450795682,-0.1395469501917308,-1.098030020763761,0.0259145889075979
8,0.42473834658218224,2.6587664328094185,-0.16150755060700603,-1.1272825459677231,0.12938989593884723
9,0.4779136752383706,2.6125334933368496,-0.18405320152636048,-1.106112709371532,0.39695456229306647
10,0.5301643451051076,2.4641701054662866,-0.20617545571379112,-0.9411330683502954,0.47101534711604304
11,0.5794477472144333,2.2777381496855607,-0.22499811708079703,-0.7275948429310416,0.05067319553678183
12,0.6250025102081445,2.2587952895870114,-0.23955001393941786,-0.7654894792436555,0.5779518872391481
13,0.6701784159998847,2.009580221251039,-0.25485980352429094,-0.47209750226464603,0.3517361705444907
14,0.7103700204249055,1.8412656275925823,-0.26430175356958385,-0.3019010591451318,0.33077603628877156
15,0.7471953329767571,1.669184709529745,-0.2703397747524865,-0.12954609760461042,0.06617730309542182
16,0.7805790271673521,1.634242206798915,-0.2729306967045787,-0.1575513125120086,0.22838059891286555
17,0.8132638713033303,1.501746672398124,-0.27608172295481886,-0.04541359771805875,0.09471927555663723
18,0.8432988047512928,1.4442043835165645,-0.27698999490918,-0.04250960623540252,0.12919327034067943
19,0.8721828924216242,1.3610443417738909,-0.2778401870338881,-0.0029219872137383127,0.18560840963680425
20,0.899403779257102,1.2324763775554415,-0.27789862677816285,0.10189598516215548,0.0385645673553269
21,0.9240533068082109,1.2059857276939816,-0.2758607070749197,0.05945281313247462,0.13051058331988705
22,0.9481730213620905,1.104939538382522,-0.27467165081227024,0.12521312252862568,0.1464079415735451
23,0.9702718121297409,0.9807147417854112,-0.27216738836169774,0.2248234509483936,0.16306728002939216
24,0.9898861069654491,0.8246346216358773,-0.26767091934272985,0.3712928054016933,0.06221352157963735
25,1.0063787993981665,0.7564285742534825,-0.260245063234696,0.3921997129852408,0.08355441989836425
26,1.0215073708832363,0.6550840431570518,-0.25240106897499115,0.4634463331282529,0.10947230455006787
27,1.0346090517463773,0.5010954873849093,-0.24313214231242608,0.6136900904109891,0.04235713664133588
28,1.0446309614940754,0.4264406813438715,-0.2308583405042063,0.6516000720181514,0.03951020021289947
29,1.053159775120953,0.34519282498043513,-0.21782633906384327,0.7029675672973108,0.0030161874092561884
30,1.0600636316205616,0.35589513776187426,-0.20376698771789706,0.6237577449386819,0.013428322016948182
31,1.067181534375799,0.39269383834954313,-0.19129183281912343,0.510207888720934,0.0007944685679114194
32,1.07503541114279,0.39717617797002014,-0.18108767504470474,0.4477095870893422,0.05665374251093313
33,1.0829789347021903,0.267509448854372,-0.1721334833029179,0.5860800166403182,0.0028268214384934718
34,1.0883291236792778,0.2604997779017094,-0.16041188297011152,0.5460814360624748,0.011937348671819949
35,1.093539119237312,0.2219262189601079,-0.14949025424886203,0.5562398434344469,0.01534936890715932
36,1.0979776436165143,0.2845319638336107,-0.13836545738017308,0.4195919543815665,0.003966673378907178
37,1.1036682828931865,0.273728633794878,-0.12997361829254175,0.3950923071135109,0.036045972873476384
38,1.109142855569084,0.15507558152106038,-0.12207177215027154,0.5334659364056592,0.0019255740468064868
39,1.1122443671995053,0.1672476291883468,-0.11140245342215835,0.4795436988241046,0.006089838078987711
40,1.1155893197832722,0.20022593674404324,-0.10181157944567626,0.3976982604433823,0.023871570116398344
41,1.1195938385181532,0.09501407544136604,-0.0938576142368086,0.5248179012209067,0.0046460114442264345
42,1.1214941200269806,0.13446348715373208,-0.08336125621239047,0.4383505897465875,0.004379353513833204
43,1.1241833897700553,0.10796621289815653,-0.07459424441745872,0.4534786477545326,0.003995549320573771
44,1.1263427140280184,0.13933305922829736,-0.06552467146236807,0.38464884317209186,0.01148402223136203
45,1.1291293752125844,0.2116989165179689,-0.05783169459892623,0.2570825287890164,0.028749175749469467
46,1.1333633535429437,0.33806107694900933,-0.0526900440231459,0.05086312166427129,0.0003475024944574595
47,1.140124575081924,0.3398108975546972,-0.051672781589860474,0.03275832714971841,0.00570308538238009
48,1.1469207930330179,0.3568496917506042,-0.051017615046866104,-0.007950788721058831,0.0279687422759648
49,1.15405778686803,0.2810519057376336,-0.05117663082128728,0.09060528466491252,0.021263667897589766
50,1.1596788249827825,0.2090504787303905,-0.04936452512798903,0.18342666201668267,0.018689486496410217
51,1.1638598345573903,0.2936202558716794,-0.04569599188765538,0.04221925153095768,0.004550560193617094
52,1.1697322396748238,0.2792547753174828,-0.04485160685703622,0.05031503202391794,0.009291472820009099
53,1.1753173351811734,0.3120896433319067,-0.04384530621655786,-0.012069690458582388,0.030888445025414626
54,1.1815591280478115,0.409432845313651,-0.04408670002572951,-0.17083055596991187,0.03371258031047524
55,1.1897477849540845,0.3281918647156201,-0.04750331114512774,-0.06204478460839405,0.014707093487692982
56,1.196311622248397,0.2847810891587097,-0.04874420683729563,-0.010962798421024919,0.0014765718658868018
57,1.2020072440315712,0.2804124681427707,-0.048963462805716125,-0.01874277272522106,0.020351657619842298
58,1.2076154933944265,0.21010294653021555,-0.049338318260220546,0.07220560698287687,0.0038977463865025206
59,1.2118175523250307,0.1929911115238104,-0.047894206120563006,0.08334254346498,0.009760812779718856
60,1.215677374555507,0.14529058589457927,-0.046227355251263404,0.14073577006722493,0.0054753594827921335
61,1.2185831862733985,0.18116348102971902,-0.0434126398499189,0.07339790913073756,0.005752483796364305
62,1.222206455893993,0.1513703194055966,-0.041944681667304154,0.10528623834166528,0.007529327524433026
63,1.2252338622821048,0.1990064526090074,-0.039838956900470845,0.021566765278627678,0.007161292884028721
64,1.229213991334285,0.16464558472575797,-0.039407621594898294,0.06135761551832791,0.00745277160415105
65,1.2325069030288,0.12178844300330553,-0.03818046928453173,0.11401057571491663,0.004381206443415772
66,1.234942671888866,0.1559963226234237,-0.0359002577702334,0.05151382064840936,0.00973581492037746
67,1.2380625983413345,0.09652779597375455,-0.03486998135726522,0.13010672451112468,0.0010368991432615482
68,1.2399931542608096,0.08715244573267913,-0.032267846867042725,0.13391150391647774,0.0006816677108061489
69,1.241736203175463,0.09474660287154715,-0.02958961678871317,0.11304109727459773,0.0010866540817187928
70,1.243631135232894,0.10578358603254673,-0.027328794843221215,0.08779479159354388,0.017128196331600464
71,1.245746806953545,0.2583941725778134,-0.025572899011350337,-0.14906927472991882,0.0030256698977587167
72,1.2509146904051012,0.27049106839097126,-0.028554284505948713,-0.1747262983497168,0.02734215881326991
73,1.2563245117729207,0.16930580090219857,-0.03204881047294305,-0.0314040876432847,0.01661248022313702
74,1.2597106277909647,0.07323080549114194,-0.032676892225808746,0.10321366357412032,0.0007142955424183656
75,1.2611752439007875,0.06475597624182597,-0.030612618954326338,0.10631382440470338,0.0022354792972677025
76,1.262470363425624,0.0965339459892865,-0.02848634246623227,0.04967049884144507,0.001396824500900875
77,1.2644010423454097,0.11073570492070027,-0.02749293248940337,0.020002651050192555,0.009432224871147733
78,1.2666157564438236,0.028710516555877003,-0.027092879468399517,0.1349120328459235,0.0013337898890878653
79,1.2671899667749411,-0.008248262551323424,-0.024394638811481045,0.1823655241298846,5.004023587918082e-06
80,1.2670250015239146,0.11739144193480179,-0.020747328328883353,-0.013209271877968998,0.0003521902884515419
81,1.2693728303626106,0.11474697731815442,-0.021011513766442735,-0.01534270559072172,0.003514696650424278
82,1.2716677699089738,0.14511282626347738,-0.02131836787825717,-0.06705835537941046,0.008989980623324196
83,1.2745700264342434,0.08368329467455907,-0.02265953498584538,0.018797878833435228,0.0007719395692667938
84,1.2762436923277347,0.09291640858405403,-0.022283577409176674,-0.0017095697979234124,0.0021444685475503775
85,1.2781020204994158,0.07070121576199095,-0.02231776880513514,0.02505411684907984,0.00817119534254893
86,1.2795160448146556,-0.03994256990491009,-0.021816686468153546,0.18441758538615788,0.0002870539074977041
87,1.2787171934165575,-0.048503409965720654,-0.018128334760430388,0.19084219256960958,0.0014152677831948362
88,1.2777471252172432,-0.0829094310151903,-0.014311490909038197,0.23711330556940452,0.0023903540148773376
89,1.2760889365969394,-0.11503471531463644,-0.009569224797650107,0.28108886250995146,0.017882750994684768
90,1.2737882422906468,0.05571361784706427,-0.003947447547451077,0.022164780100430548,0.007729255432162408
91,1.274902514647588,0.18871419749227755,-0.003504151945442466,-0.17849508158894467,0.013339335320821434
92,1.2786767985974337,0.1167050480324734,-0.0070740535772213595,-0.07151223911678725,0.015591880165252234
93,1.2810108995580831,-0.017269515183377368,-0.008504298359557105,0.1273648230324489,0.0004859125591170774
94,1.2806655092544155,0.0241453163631384,-0.005957001898908127,0.06274458855557752,0.0009015946480474739
95,1.2811484155816781,0.056811839455356436,-0.004702110127796576,0.0119943251144966,0.0027036249007465333
96,1.2822846523707854,0.10286628694157576,-0.004462223625506644,-0.05846899770729822,0.010298909990693758
97,1.2843419781096168,0.0026624434891953375,-0.005631603579652609,0.0905233816793789,0.00036491015566347427
98,1.2843952269794008,0.05527437406390427,-0.003821135946065031,0.009951054552185049,0.0021384601044762024
99,1.285500714460679,0.09276725457038497,-0.00362211485502133,-0.047411266864929344,0.0007263407378339973
100,1.2873560595520865,0.10063959992214112,-0.004570340192319917,-0.060284606869289686,0.0025156048750342003
101,1.2893688515505293,0.07563608518464308,-0.005776032329705711,-0.024123401806347124,0.001986234581057121
102,1.290881573254222,0.04972219255958948,-0.006258500365832653,0.013048644655398269,0.0005410507546225795
103,1.2918760171054138,0.039321043287430996,-0.005997527472724688,0.02681007591821174,0.0020692271389546302
104,1.2926624379711624,-0.010389930718594058,-0.005461325954360453,0.09961193333486953,0.00011011381255255646
105,1.2924546393567906,0.008013980918279383,-0.0034690872876630622,0.07040085571697174,0.00041778126910416695
106,1.2926149189751561,-0.0282828930334381,-0.002061070173323627,0.12382592941514103,0.0009183086308329045
107,1.2920492611144874,0.011293426242839275,0.0004154484149791935,0.06385562238919776,0.0010183330264229113
108,1.2922751296393442,0.08127189764050485,0.0016925608627631488,-0.04098993381823454,0.0007579168288947614
109,1.2939005675921542,0.07193591806611363,0.0008727621863984579,-0.026488371859602514,0.0002164840003643033
110,1.2953392859534765,0.07490937972566142,0.00034299474920640764,-0.030691970600002946,0.005691344567976114
111,1.2968374735479897,0.15043441948814687,-0.00027084466279365125,-0.14387868312556173,0.002124553533611393
112,1.2998461619377526,0.16484284662694154,-0.003148418325304886,-0.16557095137092412,0.026027136309537652
113,1.3031430188702915,0.0034793402164624287,-0.006459837352723368,0.07554747514596619,0.0002700232338333663
114,1.3032126056746207,0.04167791533512686,-0.004948887849804045,0.016351628996347796,0.0012676442786531752
115,1.3040461639813232,0.012595420736098328,-0.004621855269877089,0.05851986960196772,0.0010143062952157208
116,1.3042980723960451,-0.05220491874273252,-0.0034514578778377346,0.15436052003390077,0.001472890548089408
117,1.3032539740211904,-0.08395482257973551,-0.0003642474771597191,0.20097036552125974,0.0007538177468531133
118,1.3015748775695957,-0.07412024065557699,0.003655159833265476,0.1861114048577164,0.010316519717110428
119,1.3000924727564842,0.07911363069023575,0.007377387930419805,-0.04266325213896072,0.009180231466507746
120,1.3016747453702888,0.19506035691605422,0.00652412288764059,-0.2144096762474883,0.02599519700252632
121,1.30557595250861,0.05811281810755661,0.0022359293626908238,-0.007074661291955886,0.0011733005642961469
122,1.306738208870761,0.0382735461184808,0.002094436136851706,0.023341534988538873,6.640849161810654e-05
123,1.3075036797931308,0.03659638823809593,0.0025612668366224835,0.026473030065316552,0.005105001642852741
124,1.3082356075578927,0.16831961032773596,0.0030907274379288145,-0.17035814335590765,0.013764576428839381
125,1.3116019997644475,0.08464618634012493,-0.0003164354291893389,-0.04393993442777869,0.006759640867416571
126,1.3132949234912499,0.16444331879743457,-0.0011952341177449127,-0.1637286591357245,0.02758719791466806
127,1.3165837898671986,-0.006967215933770865,-0.004469807300459403,0.09303556055831849,3.281040812915851e-05
128,1.3164444455485231,-0.018592694765706255,-0.002609096089293033,0.10915948563539563,0.001058375765969644
129,1.316072591653209,0.05719616048600033,-0.0004259063765851205,-0.005290483679551886,0.0009459999736877462
130,1.317216514862929,0.04099797235710319,-0.0005317160501761582,0.018881579839145637,0.004010463479021815
131,1.318036474310071,0.13448385970130677,-0.0001540844533932454,-0.1215035558656611,0.001530162574766176
132,1.3207261515040971,0.12291015038033211,-0.002584155570706467,-0.10418829291940487,0.003056016706522664
133,1.3231843545117037,0.09771769662275843,-0.004667921429094565,-0.067159479348947,0.006617171202974062
134,1.3251387084441588,0.029588731340046193,-0.006011111016073505,0.0336604912892739,0.0023264836939993253
135,1.3257304830709598,0.10261281065282127,-0.005337901190288027,-0.0776409047224357,0.0010352998815905058
136,1.3277827392840162,0.11288319880607924,-0.006890719284736741,-0.09461560297311755,0.014008753541226132
137,1.3300404032601378,-0.012885596466900087,-0.008783031344199093,0.0920072556997889,0.0006361698408723468
138,1.3297826913307997,0.05855003374634857,-0.006942886230203315,-0.01772423466641096,0.006860702421074964
139,1.3309536920057268,-0.05726369998818029,-0.007297370923531534,0.15395098681425617,0.0013558670074155371
140,1.3298084180059633,-0.08347503120551555,-0.004218351187246411,0.1911215287876465,0.0004055570928040487
141,1.328138917381853,-0.0887051920147189,-0.00039592061149348054,0.19772650862958724,0.0033130219340758043
142,1.3263648135415587,-0.048153718487274115,0.0035586095610982645,0.1367829024491098,0.001160672142574681
143,1.3254017391718131,-0.07520658397159177,0.00629426761008046,0.17840817273655812,0.0026521485638744268
144,1.3238976074923814,-0.03673398473884857,0.009862431064811623,0.12255091949211229,0.007432261797953569
145,1.3231629277976045,0.19579621727083166,0.012313449454653869,-0.22332791270037228,0.016257398353578353
146,1.327078852143021,0.11018481790085853,0.007846891200646423,-0.09130048623085926,0.0022050274743950567
147,1.3292825485010382,0.13036035768347748,0.006020881476029237,-0.11925590185945184,0.002108480413398209
148,1.3318897556547078,0.11380976418103224,0.0036357634388402005,-0.09266033312718688,0.007179914250542234
149,1.3341659509383283,0.04984415866237718,0.0017825567762964627,0.004356353087310222,0.0012173780205556163
150,1.335162834111576,0.07355228750483248,0.0018696838380426672,-0.03068171226210832,0.008349738698474959
151,1.3366338798616726,0.1864183241775927,0.0012560495928005007,-0.19943078463236097,0.00934087208510583
152,1.3403622463452245,0.1350167943519717,-0.002732566099846718,-0.12195927223136303,0.004247847282922855
153,1.343062582232264,0.10304748168618705,-0.0051717515444739785,-0.07480885570030646,0.005988187639207318
154,1.3451235318659878,0.04449351973092792,-0.006667928658480107,0.01150042445150079,0.0005373819500917295
155,1.3460134022606063,0.05623545567445473,-0.006437920169450092,-0.008072444418039417,0.0008377612836974748
156,1.3471381113740954,0.07095722593919732,-0.00659936905781088,-0.03204737764396723,0.0020770901572790324
157,1.3485572558928793,0.10020879085135334,-0.007240316610690225,-0.0778639699695122,0.007967702845023569
158,1.3505614317099064,0.01990119622380089,-0.008797596010080469,0.040465630075461376,0.00048297219164286295
159,1.3509594556343825,-0.0016460368142695997,-0.007988283408571242,0.07019876899867375,2.5101632031594303e-05
160,1.350926534898097,-0.017384942425464563,-0.006584308028597767,0.09145784381898994,0.00021657582773972417
161,1.3505788360495876,-0.0013172215533283488,-0.004755151152217968,0.06542101237480162,4.504696749525845e-06
162,1.350552491618521,-0.003902224885712336,-0.0034467309047219357,0.06790046436519794,8.158570540752216e-05
163,1.3504744471208068,0.09370865974608296,-0.002088721617417977,-0.07952832975333292,0.013149984347608393
164,1.3523486203157284,-0.04866027391181339,-0.003679288212484635,0.13341052118377406,0.001340683752012837
165,1.3513754148374921,-0.017900993198666348,-0.0010110777888091538,0.08619020411479666,1.5993459744082577e-05
166,1.3510173949735187,-0.016770638982452974,0.0007127262934867795,0.08419741683786561,0.0009440845052292979
167,1.3506819821938696,0.05437909333835335,0.002396674630244092,-0.02231761302388527,0.001363337847364227
168,1.3517695640606366,0.0792691788745964,0.0019503223697663863,-0.05894801243416499,0.002733536872915534
169,1.3533549476381286,0.04442108173692389,0.0007713621210830865,-0.0061025717297015294,0.001199800408428182
170,1.354243369272867,0.07092653491482519,0.000649310686489056,-0.04563395922739571,0.0030339135296597
171,1.3556618999711636,0.027927852290548436,-0.0002633684980588582,0.019054948441109533,0.0011446021597168025
172,1.3562204570169745,-0.010850256210142024,0.00011773047076333248,0.0771446788372876,0.0005264999718622486
173,1.3560034518927717,0.05909369520175383,0.0016606240475090844,-0.027736634795140033,0.0020447421598820026
174,1.3571853257968067,0.09356354398851546,0.0011058913516062837,-0.07895311343731604,0.0019591812592430445
175,1.359056596676577,0.07230399963091871,-0.00047317091714003706,-0.04673868441006738,0.006877849073824883
176,1.3605026766691954,-0.02330253354823772,-0.0014079446053413846,0.09653198706015798,0.0010432191109595683
177,1.3600366259982306,0.030526252778673275,0.0005226951358617748,0.015374952021491695,0.0011150906537243542
178,1.360647151053804,-0.004321574187799111,0.0008301941762916087,0.06780035769355985,8.91836002368331e-05
179,1.360560719570048,0.0658490962148324,0.0021862013301628055,-0.03721153457820017,0.006431158717104473
180,1.3618777014943446,0.16361274462548764,0.0014419706385988022,-0.1832139140709734,0.023106602495178263
181,1.3651499563868543,0.01842003520966251,-0.002222307642820666,0.03499886285148798,0.0001501728130902972
182,1.3655183570910476,0.011130389857045973,-0.0015223303857909063,0.04527994597045726,0.0009209825068896097
183,1.3657409648881886,-0.05697643209252432,-0.0006167314663817611,0.14699249555663524,0.0018506708069506344
184,1.3646014362463381,-0.021068726090383558,0.002323118444750944,0.09294962775713128,5.281082721821147e-06
185,1.3641800617245305,-0.0207961372049883,0.00418211099989357,0.09322374174079992,0.0008511698600258695
186,1.3637641389804307,0.029293149739970357,0.006046585834709569,0.01932000542044504,0.0004306569792357375
187,1.3643500019752302,0.015280891390433437,0.00643298594311847,0.04211569412015648,0.0008405275415283758
188,1.3646556198030388,0.06287780372314342,0.0072752998255216,-0.027386912273125646,0.003350193549226221
189,1.3659131758775016,0.11580464552639341,0.006727561580059087,-0.10463615464470136,0.00577426102582082
