,X,v,theta,theta_dot,energy
0,0.0,2.0,0.3490658503988659,0.0,1.2
1,0.04,2.5758278839721624,0.3490658503988659,-0.7110978979793615,1.5130237429293403
2,0.09151655767944325,3.146425642682797,0.33484389243927865,-1.4148237307876572,0.7920550286535472
3,0.1544450705330992,3.3911323095015358,0.3065474178235255,-1.664883023316909,0.4543754865494667
4,0.2222677167231299,3.520537733194529,0.2732497573571873,-1.7612220256873905,0.49215704955986395
5,0.29267847138702047,3.656358276623051,0.2380253168434395,-1.878054782085838,0.1668661562770378
6,0.3658056369194815,3.6992712945943222,0.20046422120172275,-1.871288920992534,0.317436388465827
7,0.4397910628113679,3.611752426137701,0.16303844278187207,-1.6840970278840348,0.26047545995809096
8,0.512026111334122,3.6816365740486874,0.12935650222419137,-1.7398118848429505,0.14704302186691004
9,0.5856588428150957,3.719951618736214,0.09456026452733236,-1.7588794366686924,0.04169541494534051
10,0.6600578751898201,3.7077218583752996,0.05938267579395851,-1.7128574450468967,0.4020571644520193
11,0.7342123123573261,3.599010175767875,0.025125526893020576,-1.5326291015098583,0.21723943044513208
12,0.8061925158726836,3.538659398111752,-0.005527055137176589,-1.4347453800341357,0.13308929258246277
13,0.8769657038349187,3.5013461133872035,-0.0342219627378593,-1.3804012537763428,0.17813017429747618
14,0.9469926261026628,3.451238690128553,-0.06182998781338616,-1.3153434201002203,0.25702822518292334
15,1.0160173999052338,3.3781043502823183,-0.08813685621539057,-1.2240179714505661,0.4423111479042127
16,1.0835794869108801,3.2494368032149388,-0.11261721564440189,-1.0576444936045117,0.16624845507441538
17,1.1485682229751788,3.200302876632523,-0.13377010551649213,-1.0174499907031938,0.5355963895447358
18,1.2125742805078292,3.0366317772714586,-0.154119105330556,-0.8133478927727354,0.4280433578437357
19,1.2733069160532584,2.899749931565362,-0.1703860631860107,-0.6555906396307191,0.1200193237749394
20,1.3313019146845657,2.9427775813417942,-0.1834978759786251,-0.7690489869491526,0.4558572709445082
21,1.3901574663114016,2.7926986515461842,-0.19887885571760816,-0.6013561345237302,0.10294225607397962
22,1.4460114393423253,2.831605539693953,-0.21090597840808276,-0.7166518092370123,0.09338793811120623
23,1.5026435501362043,2.8668650254222436,-0.225239014592823,-0.8299167913452321,0.4388180107255498
24,1.5599808506446493,2.7191077763590705,-0.24183735041972765,-0.679541040561306,0.321050087772273
25,1.6143630061718308,2.606333333477291,-0.2554281712309538,-0.5857112018544779,0.6048743025095766
26,1.6664896728413767,2.3821272215798004,-0.26714239526804334,-0.3345954718264569,0.1351906679311332
27,1.7141322172729727,2.3303035108462447,-0.2738343047045725,-0.33722627540139216,0.1578303389019131
28,1.7607382874898976,2.2678432184045207,-0.2805788302126003,-0.32653154916989635,0.5202782016178638
29,1.806095151857988,2.0476309667934403,-0.28710946119599823,-0.09054226378290625,0.32278753237213437
30,1.8470477711938569,1.8983082804131992,-0.28892030647165634,0.04101802838846566,0.15414780547231718
31,1.8850139368021208,1.823521164203297,-0.28809994590388704,0.06478331460277367,0.0981730292495437
32,1.9214843600861868,1.7752691857064515,-0.2868042796118316,0.05064374595720186,0.23645682478137514
33,1.9569897438003159,1.6501078722286602,-0.28579140469268755,0.14754776690485535,0.2801569247020265
34,1.989991901244889,1.4899162771385666,-0.28284044935459046,0.29520527273265484,0.11896899627327466
35,2.01979022678766,1.4169186251542907,-0.2769363438999374,0.3183002804061615,0.07849906933472556
36,2.048128599290746,1.3674102686724934,-0.27057033829181415,0.30935068945731314,0.010700618464950674
37,2.075476804664196,1.3635396662982144,-0.2643833245026679,0.23636473198651556,0.22656739253309188
38,2.10274759799016,1.2070406802673062,-0.25965602986293757,0.3861302641351245,0.05467067097154521
39,2.1268884115955062,1.167178885463853,-0.2519334245802351,0.36843465712484386,0.14921559851543284
40,2.150231989304783,1.048135370565679,-0.24456473143773821,0.46807564636768034,0.01895864730003942
41,2.1711946967160967,1.034207009774084,-0.23520321851038462,0.41715907896725457,0.07466229334026642
42,2.1918788369115783,0.9684817384933848,-0.2268600369310395,0.4445186249632063,0.07082745081101802
43,2.211248471681446,0.9019020291346735,-0.21796966443177537,0.4757030509169711,0.021814866794326288
44,2.229286512264139,0.9278508312652363,-0.20845560341343594,0.37412398248419465,0.010773178020159663
45,2.247843528889444,0.9196240473896138,-0.20097312376375204,0.3253539542177248,0.07546498278729907
46,2.266236009837236,0.8438133160069994,-0.19446604467939754,0.3780921118202311,0.026417890834987353
47,2.283112276157376,0.8763618723600052,-0.1869042024429929,0.27337619377935485,0.043853390950645325
48,2.300639513604576,0.830932970222956,-0.1814366785674058,0.2857023106905882,0.018981669590092745
49,2.3172581730090354,0.8115610322700669,-0.17572263235359403,0.2612330462572955,0.05910832425643635
50,2.3334893936544367,0.7441218594276667,-0.17049797142844814,0.3094370196563298,0.016300264265617592
51,2.34837183084299,0.7255631083645738,-0.16430923103532155,0.28698760684917435,0.02743355888703665
52,2.3628830930102818,0.6916858783253441,-0.15856947889833806,0.2890291968115994,0.004487885585088916
53,2.376716810576789,0.6877029773848035,-0.15278889496210607,0.2485042914736703,0.009151106008739997
54,2.390470870124485,0.7026005858651919,-0.14781880913263265,0.18167283688288022,0.011526791201676078
55,2.404522881841789,0.688885032425475,-0.14418535239497504,0.15872117067129793,0.02499625078833031
56,2.4183005824902986,0.655933698006688,-0.14101092898154907,0.16539151526330703,0.01681237389714204
57,2.4314192564504324,0.6332329361347506,-0.13770309867628294,0.15778472092172538,0.009009962525394035
58,2.4440839151731275,0.6214683798964374,-0.13454740425784845,0.13490762247800978,0.08923797905377596
59,2.456513282771056,0.4848192046770808,-0.13184925180828824,0.2985911671640819,0.03590676070848068
60,2.466209666864598,0.5568896576949185,-0.1258774284650066,0.1527723290261381,0.003529465789229492
61,2.477347460018496,0.5647716316916672,-0.12282198188448384,0.10413260385290163,0.061375039027805854
62,2.4886428926523294,0.4614804936772542,-0.12073932980742581,0.22188320660039107,0.01730674889323494
63,2.4978725025258743,0.42741485048088473,-0.116301665675418,0.23719848816955352,0.03595641902202144
64,2.506420799535492,0.3490717355999138,-0.11155769591202692,0.31980363997483074,0.0014289119135197147
65,2.51340223424749,0.3544772470320545,-0.10516162311253031,0.27901579887647215,0.04522115370140235
66,2.520491779188131,0.47605083974492834,-0.09958130713500087,0.0668022768958523,0.0017759283259156208
67,2.53001279598303,0.47385411552758705,-0.09824526159708381,0.0408524977723452,0.05189273007913387
68,2.5394898782935815,0.36890182708185704,-0.09742821164163691,0.1686841175954744,0.04292699188406422
69,2.5468679148352185,0.2591386152171583,-0.09405452928972742,0.30394952804604725,0.0020068681442265844
70,2.5520506871395616,0.25330028911784586,-0.08797553872880648,0.28505703009763034,0.00511973808778188
71,2.5571166929219187,0.2733000704793998,-0.08227439812685387,0.22934192035334885,0.0019113425543481903
72,2.562582694331507,0.2679000653937356,-0.0776875597197869,0.21325313553623176,0.03217435940109442
73,2.5679406956393818,0.1559666757889246,-0.07342249700906227,0.35782963149565805,0.014022703657721661
74,2.57106002915516,0.23642523512796054,-0.0662659043791491,0.2159001275534528,0.013226498925247025
75,2.5757885338577196,0.18497801212359793,-0.06194790182808005,0.27343366816289283,0.04454468561216677
76,2.5794880941001916,0.40596752180213336,-0.056479228464822194,-0.07561579396351215,0.026927149533000384
77,2.5876074445362343,0.3415283035214455,-0.057991544344092434,0.004292841704521377,0.004951849627546073
78,2.5944380106066633,0.3564918341371705,-0.057905687510002,-0.035154682151104434,0.026251176695112993
79,2.601567847289407,0.28517342920020006,-0.05860878115302409,0.05462886393566304,0.06665524218818517
80,2.607271315873411,0.059998637267915156,-0.057516203874310834,0.37458999448392627,0.008166014641506795
81,2.608471288618769,0.16425302902815433,-0.05002440398463231,0.20156655733674986,0.007596035412740527
82,2.6117563491993323,0.20769617886469444,-0.04599307283789731,0.1217823094534286,0.01721939353190278
83,2.615910272776626,0.12957947672073494,-0.04355742664882874,0.22531625403464284,0.003167639718336611
84,2.618501862311041,0.1523018211902832,-0.039051101568135876,0.17846323019177807,0.0026459725255173028
85,2.6215478987348466,0.1689511589551241,-0.035481836964300316,0.14203015764965615,0.008258095947049116
86,2.624926921913949,0.21538692111866956,-0.032641233811307194,0.06199088404264992,0.012618580220845525
87,2.6292346603363224,0.2722691626438257,-0.0314014161304542,-0.03288184711487696,0.026834946294973062
88,2.634680043589199,0.17603917178061423,-0.03205905307275174,0.10216148020363519,0.0002619885011959801
89,2.638200827024811,0.1779128060041143,-0.030015823468679037,0.08992872586277761,0.00507185968358909
90,2.6417590831448936,0.15115668862821702,-0.028217248951423485,0.12122149678292851,0.012400249134746664
91,2.644782216917458,0.22877719708388414,-0.025792819015764915,-0.0034576874797777185,0.0061606562742856485
92,2.6493577608591354,0.20285831337844284,-0.02586197276536047,0.027825458494000366,0.014793048900568425
93,2.6534149271267045,0.13252870146512905,-0.025305463595480464,0.1256820263600963,0.012746189767657607
94,2.6560655011560073,0.042940705634209236,-0.02279182306827854,0.2525819832511057,0.0028434954243911274
95,2.6569243152686917,0.09424122805948876,-0.017740183403256424,0.1689509695954861,0.009565859889228206
96,2.6588091398298817,0.0029296753997830743,-0.014361164011346702,0.3006814060213085,0.002013607530089574
97,2.6588677333378774,0.12150337208835894,-0.008347535890920531,0.11861716483401413,0.015543839670037798
98,2.6612978007796446,0.2411284902247786,-0.005975192594240249,-0.0632684077269513,0.008165337836105785
99,2.66612037058414,0.2077783900096955,-0.007240560748779275,-0.015000846593267246,0.004570456939694622
100,2.670275938384334,0.2294130777152532,-0.007540577680644619,-0.04958073375496191,0.023771218940447182
101,2.674864199938639,0.3316139523022416,-0.008532192355743857,-0.20509459610485176,0.02173304305296951
102,2.6814964789846836,0.265948238793105,-0.012634084277840893,-0.1091080452013165,0.005016570416328838
103,2.686815443760546,0.2473769278173366,-0.014816245181867223,-0.08496762393622267,0.037312192149471464
104,2.6917629823168925,0.09810559996429535,-0.01651559766059168,0.13455897542220888,0.01437607019072212
105,2.6937250943161786,0.23291313366032054,-0.013824418152147501,-0.07248011264569584,0.0259908215408707
106,2.698383356989385,0.12268249309256675,-0.015274020405061418,0.08878579897151892,0.014916651813458281
107,2.7008370068512364,0.008058931733462102,-0.01349830442563104,0.2562106981158305,0.002583605635465254
108,2.7009981854859055,0.13617166540847148,-0.00837409046331443,0.06009072335897958,0.012381134782310649
109,2.703721618794075,0.22325237802780976,-0.0071722759961348375,-0.07298771949175364,0.014106201069730987
110,2.708186666354631,0.16078169071895232,-0.008632030385969911,0.01860727022623966,0.0012831854604886963
111,2.71140230016901,0.15316000114650963,-0.008259884981445118,0.027501593240030514,0.004703909695977199
112,2.7144655001919404,0.12355785810957853,-0.0077098531166445074,0.06947491451248966,0.0010570040401494272
113,2.716936657354132,0.11553033744734796,-0.006320354826394714,0.0792491632694316,0.01720465804669126
114,2.719247264103079,0.25651432395729734,-0.004735371561006082,-0.13408076455375637,0.04213825481364396
115,2.724377550582225,0.09241615687216972,-0.00741698685208121,0.1106715322717585,0.00031583203710532803
116,2.7262258737196685,0.09568444976485284,-0.00520355620664604,0.1035886536363246,0.0053068917636594146
117,2.7281395627149654,0.14733080203679982,-0.003131783133919548,0.024590335426313142,0.008719580389618127
118,2.7310861787557013,0.20468110358443645,-0.0026399764253932853,-0.06235543776009997,0.004792077612972811
119,2.7351798008273898,0.1815568550353742,-0.0038870851805952846,-0.028445337976852274,0.010793752045066855
120,2.7388109379280974,0.2400296107215656,-0.00445599194013233,-0.1172966090546608,0.02092884505212074
121,2.7436115301425286,0.15309504644681748,-0.006801924121225546,0.011793885443926344,0.014681532031971492
122,2.746673431071465,0.24642498920773698,-0.006566046412347019,-0.13019754046699356,0.008441343745842739
123,2.7516019308556197,0.21227709731096428,-0.00916999722168689,-0.08090721055478621,0.0180625960682849
124,2.7558474728018387,0.2968858391269291,-0.010788141432782615,-0.21051092872703958,0.044592286301440305
125,2.7617851895843772,0.1456249019765858,-0.014998360007323406,0.013195621803536284,0.011797239669870337
126,2.764697687623909,0.06713015486751149,-0.01473444757125268,0.12651514709986048,0.007059064673153326
127,2.766040290721259,0.16183561918035733,-0.01220414462925547,-0.019859399792166166,0.011284322588641846
128,2.769277003104866,0.23041781908190997,-0.012601332625098794,-0.12631296816038767,0.025896076950002293
129,2.773885359486504,0.11815163229456353,-0.015127591988306547,0.03836824809191308,0.003977455337312429
130,2.7762483921323953,0.08600383483633814,-0.014360227026468286,0.08213708434520353,0.0013997819311361585
131,2.777968468829122,0.10142768568696178,-0.012717485339564214,0.05478193187021292,0.009535700861952767
132,2.7799970225428616,0.012087031043695823,-0.011621846702159955,0.18504323698131792,0.0008405012419580375
133,2.7802387631637355,0.05225748995793083,-0.007920981962533597,0.12137487183725663,0.005182646435125853
134,2.7812839129628943,0.13988753248147123,-0.005493484525788464,-0.012394812754603371,4.7146743420665196e-05
135,2.7840816636125236,0.14029645629524096,-0.005741380780880531,-0.01462326554694738,0.004991250460207746
136,2.7868875927384282,0.10550491969114704,-0.006033846091819479,0.03587522254859989,0.004510566496117879
137,2.788997691132251,0.06451694159431932,-0.0053163416408474815,0.0955821305141783,0.0005798726933368612
138,2.7902880299641377,0.05637769088983892,-0.0034046990305639157,0.1062278369588317,0.003927326263870633
139,2.7914155837819346,0.11902689697493112,-0.0012801422913872817,0.011253592920618533,0.0019032194380927288
140,2.7937961217214333,0.10351218194398173,-0.001055070432974911,0.034149284667451374,0.004966505731240259
141,2.795866365360313,0.05740921768028702,-0.0003720847396258836,0.10299350192279906,0.004638324918671368
142,2.7970145497139187,-0.015465804516196308,0.0016877852988300976,0.21219663473959927,0.0006289653973557796
143,2.796705233623595,0.08993334748552803,0.0059317179936220835,0.05459434056076756,0.00948850622252002
144,2.7985039005733054,0.1900167707022612,0.007023604804837435,-0.09378423831135307,0.012112533374904063
145,2.8023042359873505,0.12629934445908597,0.005147920038610373,0.003854466463731554,0.014610104052319092
146,2.8048302228765323,0.238925920994714,0.005225009367885004,-0.16356967799364322,0.006841459075241398
147,2.8096087412964263,0.2100181200254579,0.0019536158080121395,-0.11867242267682265,0.016855294547806956
148,2.8138091036969355,0.12962716590562096,-0.00041983264552431345,0.0024881410692333406,0.010426078311450938
149,2.8164016470150477,0.051232052692670116,-0.0003700698241396466,0.11995736973109189,0.002342916173270576
150,2.817426288068901,0.010913007468567333,0.0020290775704821912,0.18032713290011188,0.0001896445782922932
151,2.817644548218272,0.001201993029459265,0.0056356202284844285,0.19549017296883925,0.0014152673162332351
152,2.8176685880788614,0.13799623977143793,0.009545423687861213,-0.008041075114949281,0.00725176889859146
153,2.8204285128742903,0.0864547861151152,0.009384602185562228,0.07207389518977257,0.006944338628871428
154,2.8221576085965925,0.010817437272809302,0.01082608008935768,0.18828395495469535,0.0034174143489399617
155,2.8223739573420485,0.18274083688095333,0.014591759188451587,-0.066403226648731,0.03416258777039051
156,2.8260287740796675,-0.0029141096170513525,0.013263694655476967,0.21633937143084397,0.001554096396329786
157,2.8259704918873263,0.2160495117071664,0.017590482084093848,-0.10817775810789171,0.02052711643690607
158,2.8302914821214697,0.12094733051883796,0.015426926921936014,0.039624779028086116,0.0056830903426669235
159,2.8327104287318465,0.07555741858775608,0.016219422502497735,0.11223688193987394,0.016918199948961495
160,2.8342215771036017,0.2799566704672224,0.018464160141295215,-0.18955336718775748,0.017106172201299726
161,2.8398207105129463,0.34119631118299365,0.014673092797540066,-0.27596901546644825,0.022855981422310302
162,2.846644636736606,0.27313989206820133,0.009153712488211101,-0.16958164150195373,0.012871589540713687
163,2.8521074345779702,0.32031884426250046,0.005762079658172027,-0.23765595106579673,0.00912768058780448
164,2.85851381146322,0.3490073227109592,0.0010089606368560928,-0.27899391231841375,0.05240615917046686
165,2.8654939579174394,0.1969738121261152,-0.004570917609512183,-0.05064712814199521,0.007297732182822474
166,2.8694334341599617,0.1604663553730044,-0.005583860172352087,0.002769639820438499,0.007636489264390268
167,2.872642761267422,0.1141543027816155,-0.005528467375943317,0.07059498936085673,0.011628093316808426
168,2.874925847323054,0.21089472294974326,-0.004116567588726182,-0.07613878444876993,0.008901198735243239
169,2.879143741782049,0.16908938603036539,-0.00563934327770158,-0.014641577850772074,0.022566363716767575
170,2.8825255295026566,0.03845296329371886,-0.005932174834717021,0.17965198223312,0.0006879851322511894
171,2.883294588768531,0.052935518759492706,-0.002339135190054621,0.15618448209945454,0.0005169052149078633
172,2.884353299143721,0.044568923083289066,0.0007845544519344701,0.16804663616132937,0.004902140295618575
173,2.8852446776053866,0.13616496590505622,0.004145487175161057,0.030883273198670402,0.0014079140877833447
174,2.8879679769234876,0.12612088772662286,0.0047631526391344655,0.047168030749129425,0.012166286389889439
175,2.8904903946780203,0.2185917948957224,0.005706513254117054,-0.09013639496793449,0.015991077416568338
176,2.8948622305759346,0.14577621660613133,0.003903785354758364,0.02076289987150512,0.0044343371336503
177,2.8977777549080574,0.17520618164394516,0.004319043352188467,-0.022234001332095264,0.00513844362022964
178,2.9012818785409364,0.20392286957520028,0.0038743633255465615,-0.06403883666814802,0.004837213745839911
179,2.9053603359324405,0.22734466265212155,0.002593586592183601,-0.09803220263285661,0.0028598244746526717
180,2.909907229185483,0.21478971088090512,0.0006329425395264687,-0.07843732471272546,0.005148529377867004
181,2.9142030234031013,0.2385608248458943,-0.0009358039547280406,-0.11390790342369245,0.0018637090418368468
182,2.9189742399000194,0.24636507954064987,-0.00321396202320189,-0.12588940666255083,0.016303531752395035
183,2.9239015414908325,0.18031370932238383,-0.005731750156452907,-0.02775776625358481,0.009158456419738661
184,2.9275078156772802,0.23029793019966258,-0.006286905481524603,-0.10441799129474268,0.0027666392703180422
185,2.9321137742812735,0.2423549103488385,-0.008375265307419456,-0.12435144213947566,0.02096042017674593
186,2.93696087248825,0.15608351067971005,-0.010862294150208968,0.0025888195419995763,0.024458877974542416
187,2.940082542701844,0.0034740087748327264,-0.010810517759368976,0.22829611612014075,0.0012543861082479262
188,2.940152022877341,0.09198353172837163,-0.006244595436966161,0.09236135920041033,0.011168721233805919
189,2.941991693511908,0.2053615347215651,-0.004397368252957954,-0.07953822854770923,0.017049734434883706
190,2.9460989242063396,0.12297512681884802,-0.005988132823912138,0.0427473663883913,0.0056920601082331955
191,2.9485584267427165,0.07860616815396185,-0.0051331854961443124,0.107539110632598,0.007431673602583188
192,2.9501305501057957,-0.008157360301828578,-0.0029824032834923526,0.23617353877401515,0.0003492030649773729
