,X,v,theta,theta_dot,energy
0,0.0,2.0,0.5235987755982988,0.0,1.2
1,0.04,2.5687518211086795,0.5235987755982988,-0.5918302882931687,1.5272252910864685
2,0.0913750364221736,3.1376714329192232,0.5117621698324354,-1.183878543101837,1.8300960797243948
3,0.15412846508055805,3.700083853022897,0.48808459897039863,-1.7754391652219907,0.830741252454288
4,0.228130142141016,3.9155062967397245,0.45257581566595884,-1.922974486282017,0.4947191365715576
5,0.3064402680758105,4.035579845617466,0.4141163259403185,-1.9563906317745392,0.05786837003530087
6,0.3871518649881598,4.017730618431579,0.37498851330482774,-1.8135798775683465,0.3630200967418278
7,0.4675064773567914,4.103059202204735,0.3387169157534608,-1.8249977812740503,0.42921822446873514
8,0.5495676614008861,4.202892192632727,0.3022169601279798,-1.8685492757228814,0.05358348734050754
9,0.6336255052535407,4.212453284254626,0.26484597461352216,-1.794735533645403,0.0229888887110459
10,0.7178745709386332,4.215065783176542,0.2289512639406141,-1.7215600251710617,0.11120547396813908
11,0.802175886602164,4.1864447807219465,0.19452006343719286,-1.613023675207696,0.22524408387525224
12,0.885904782216603,4.237487484416956,0.16225958993303893,-1.6313148473683556,0.0315784106509404
13,0.9706545319049421,4.243008433089475,0.12963329298567183,-1.5919922250904206,0.3017182920724663
14,1.0555147005667316,4.171006855521677,0.09779344848386343,-1.4468905339604645,0.2736548712091373
15,1.138934837677165,4.104828453634028,0.06885563780465413,-1.3193917603694545,0.028165347415998285
16,1.2210314067498456,4.097170324988291,0.04246780259726504,-1.2877042224143578,0.04337940619630326
17,1.3029748132496113,4.107108425303232,0.016713718148977885,-1.2901161509488497,0.16647028653542695
18,1.3851169817556759,4.147011502739599,-0.009088604869999111,-1.3450488027927092,0.3061939658985108
19,1.4680572118104678,4.0740146774598385,-0.0359895809258533,-1.2382301001906824,0.787924340998377
20,1.5495375053596645,3.8831693050896754,-0.060754182929666944,-0.9627260687479584,0.05395175342931955
21,1.627200891461458,3.870278066334662,-0.08000870430462612,-0.9612756301532336,0.2058238400012082
22,1.7046064527881513,3.8188990117588917,-0.09923421690769078,-0.9079510607681396,0.046776234061813075
23,1.780984433023329,3.8081612349157146,-0.11739323812305358,-0.9210506355178607,0.10357185901870504
24,1.8571476577216435,3.7829312388478487,-0.13581425083341078,-0.9179005098737574,0.09999851790915197
25,1.9328062824986005,3.758702401028227,-0.15417226103088594,-0.9216986731150624,0.17189302476198282
26,2.0079803305191652,3.715712758046286,-0.17260623449318718,-0.9031263561182109,0.4271746957976438
27,2.082294585680091,3.6048494006985594,-0.1906687616155514,-0.7897970109952437,0.2193908246082834
28,2.1543915736940624,3.5475922939798035,-0.2064647018354563,-0.7611853757700685,0.2821319741857151
29,2.2253434195736586,3.4722510896250562,-0.22168840935085765,-0.71084402626086,0.48346403892630413
30,2.2947884413661597,3.338608799912963,-0.23590528987607484,-0.5799302590701062,0.12102971763183723
31,2.361560617364419,3.306279845806478,-0.24750389505747697,-0.6014945925060414,0.3372900598362497
32,2.4276862142805484,3.2096939632912855,-0.2595337869075978,-0.5330561656161988,0.23812649397935087
33,2.4918800935463743,3.285725102927137,-0.2701949102199218,-0.718732633895027,0.16383994999809867
34,2.557594595604917,3.2403983326086387,-0.28456956289782237,-0.7316835052125057,0.31174107115161737
35,2.6224025622570895,3.14984843613395,-0.29920323300207247,-0.6838600240124186,0.0953950965557098
36,2.6853995309797685,3.1240895512928355,-0.31288043348232086,-0.7335974601202663,0.7054563427002669
37,2.7478813220056253,2.907073418970033,-0.3275523826847262,-0.514370509408375,0.4811111880366314
38,2.806022790385026,2.749852847001545,-0.3378397928728937,-0.38566574911313617,0.030490233278816913
39,2.861019847325057,2.765050240936798,-0.3455531078551564,-0.504619474801115,0.4066344030856074
40,2.916320852143793,2.6261012158579304,-0.35564549735117873,-0.40809905701619675,0.6000868901395208
41,2.968842876460952,2.4082394421058715,-0.3638074784915027,-0.2041259411538722,0.3647361308518764
42,3.017007665303069,2.266018826793301,-0.3678899973145801,-0.10937330323032476,0.31827582497141194
43,3.062328041838935,2.1347585049141005,-0.3700774633791866,-0.03139344151614469,0.4808786172369436
44,3.1050232119372168,1.9217290354028442,-0.3707053322095095,0.1601812365812686,0.32803149816013044
45,3.1434577926452736,1.762148718397384,-0.36750170747788413,0.27678352243808935,0.16310449141801275
46,3.1787007670132215,1.678020974715126,-0.36196603702912233,0.28891923991243973,0.10865548668549019
47,3.212261186507524,1.6205555028741874,-0.35618765223087356,0.2654226270050849,0.3880960528078461
48,3.2446722965650077,1.3952017953220044,-0.35087919969077186,0.4797171348365181,0.12324783893795402
49,3.2725763324714476,1.315509040759296,-0.3412848569940415,0.490918121995971,0.12439284672459686
50,3.2988865132866336,1.2298570867501166,-0.3314664945541221,0.5135848925650697,0.053181732904040456
51,3.323483655021636,1.19302942795598,-0.3211947967028207,0.47014293881925123,0.19474611514600734
52,3.3473442435807557,1.0417708266760324,-0.31179193792643567,0.59261160242697,0.08103996218661244
53,3.368179660114276,0.9722646401794962,-0.29993970587789626,0.6016552496781119,0.03557251512767428
54,3.387624952917866,1.010721958358083,-0.287906600884334,0.4596786970719944,0.13444712468758413
55,3.4078393920850276,0.8880410399089751,-0.2787130269428941,0.5526458158995851,0.006274030975647846
56,3.4256002128832073,0.898404948061612,-0.2676601106249024,0.45681500488860705,0.10869655108819463
57,3.4435683118444396,0.7871179004441637,-0.25852381052713025,0.5400457520400743,0.026997947660300385
58,3.459310669853323,0.7582454038120348,-0.24772289548632875,0.5067530920755515,0.10157606857495921
59,3.4744755779295637,0.6351834050463759,-0.23758783364481773,0.6136231508897774,0.04063516888679473
60,3.4871792460304913,0.5787509197097821,-0.22531537062702217,0.6266984523486676,0.013584647488974262
61,3.498754264424687,0.603547939519526,-0.21278140158004882,0.5247594389950674,0.010514671292387525
62,3.5108252232150776,0.5901316066787555,-0.20228621280014747,0.48234333719975225,0.03461606222043344
63,3.5226278553486527,0.537847017619356,-0.19263934605615243,0.5001037038300264,0.050821850580466336
64,3.53338479570104,0.628762729798561,-0.1826372719795519,0.3099664014655845,0.07150553796843892
65,3.5459600502970114,0.5230054086190681,-0.1764379439502402,0.4125666272771607,0.0586941384195935
66,3.556420158469393,0.4199349676716637,-0.16818661140469698,0.5131680230655453,0.016870092525614472
67,3.564818857822826,0.45933473345987275,-0.15792325094338608,0.4056881958273428,0.043129319080985655
68,3.5740055524920233,0.37358242783474355,-0.14980948702683922,0.48647931755374024,0.04588510601020927
69,3.581477201048718,0.48867566786579747,-0.14007990067576442,0.27189367682132815,0.025365886152016404
70,3.591250714406034,0.4413122275612236,-0.13464202713933787,0.30119400227125775,0.015298158882771131
71,3.6000769589572585,0.41043815911943826,-0.12861814709391273,0.30762070140046077,0.026703456004689454
72,3.608285722139647,0.350923513612597,-0.12246573306590351,0.35844572552649473,0.001834898432329191
73,3.615304192411899,0.34777403904834997,-0.11529681855537362,0.3272195615630774,0.0006502024600174536
74,3.622259673192866,0.34765139897482544,-0.10875242732411207,0.29358008714981754,0.017233272658666247
75,3.6292127011723627,0.30264504356270944,-0.10288082558111572,0.3287805670259916,0.017562227500981464
76,3.6352656020436167,0.3580188889713769,-0.09630521424059589,0.21596535522291022,0.015336762115744347
77,3.6424259798230443,0.4000412076490884,-0.09198590713613769,0.12495397306426273,0.04349708325810429
78,3.650426803976026,0.2968147966979688,-0.08948682767485243,0.2521332361037846,0.014490159474866777
79,3.6563630999099854,0.25224787863050785,-0.08444416295277674,0.2924420985161492,0.032878064991803714
80,3.661408057482596,0.3741984058895099,-0.07859532098245375,0.08537103650517894,0.038767366870932914
81,3.668892025600386,0.275325031207923,-0.07688790025235018,0.21014001983805125,0.023715904661113178
82,3.6743985262245444,0.19522784010173744,-0.07268509985558916,0.30734806884007215,0.0023365855703176637
83,3.678303083026579,0.20715387449914793,-0.06653813847878771,0.26815564336681763,0.028140023805064297
84,3.682446160516562,0.3332374264873492,-0.06117502561145136,0.059901039286009594,0.019901417630260234
85,3.689110909046309,0.27633445666892187,-0.05997700482573117,0.12712158770631654,0.023605510201049878
86,3.6946375981796873,0.19557675069244174,-0.05743457307160484,0.23041766378748121,0.0002448056761546844
87,3.698549133193536,0.19523654603731297,-0.052826219795855216,0.21405064690169326,0.011719899843581417
88,3.702453864114282,0.2517673191110288,-0.04854520685782135,0.11384909008566348,0.041197269698490954
89,3.7074892104965027,0.09605908034902155,-0.04626822505610808,0.33286960570354907,0.0013893490025298292
90,3.709410392103483,0.1089067692760951,-0.0396108329420371,0.300020691085254,0.014680104746430576
91,3.711588527489005,0.22633870553378854,-0.03361041912033202,0.1123684184867767,0.028159946632327564
92,3.7161153015996806,0.34551337066946836,-0.031363050750596484,-0.07617222143499788,0.05122295460375225
93,3.72302556901307,0.19987403779659882,-0.03288649517929644,0.13296011872608282,0.008211530541932247
94,3.727023049769002,0.16144213414810427,-0.030227292804774784,0.18090991643714746,0.02591323277526944
95,3.730251892451964,0.3108736492417902,-0.026609094476031835,-0.052020434372672064,0.0016200255671877809
96,3.7364693654367995,0.3163777796288503,-0.027649503163485276,-0.06809585787990244,0.01906374090104338
97,3.7427969210293766,0.25741010759884897,-0.029011420321083326,0.012193923737915238,0.03854706974580138
98,3.7479451231813536,0.11205146122764059,-0.02876754184632502,0.22161198138666793,0.004096133855747901
99,3.7501861524059064,0.079740913311732,-0.024335302218591662,0.26160125937950673,0.003185221764412786
100,3.751780970672141,0.11400094869715169,-0.019103277031001526,0.20307254961534868,0.014564772314142098
101,3.754060989646084,0.22957988611686214,-0.015041826038694552,0.024119754788263864,0.0024694484522092552
102,3.7586525873684216,0.2402395492034364,-0.014559430942929275,0.003709938893081976,0.005191727799071024
103,3.7634573783524905,0.21937989257619703,-0.014485232165067636,0.030715786094645446,0.010748285373000634
104,3.7678449762040143,0.17209159696705437,-0.013870916443174727,0.09738227871521887,0.004616602531759003
105,3.7712868081433553,0.19780587999791233,-0.011923270868870349,0.054736646060758926,0.0018160960580175514
106,3.7752429257433135,0.2068227448596469,-0.01082853794765517,0.03770695158669743,0.0015124827149888068
107,3.7793793806405063,0.19990213201155416,-0.010074398915921223,0.04490373430536372,0.03029825686196628
108,3.7833774232807373,0.05367340944421911,-0.009176324229813949,0.26127386412067233,0.009538615120011962
109,3.7844508914696218,0.19577263989013974,-0.003950846947400502,0.04543619101841628,0.009994803359665917
110,3.7883663442674247,0.14654138529433966,-0.0030421231270321763,0.11812095058707048,0.007074683975014156
111,3.7912971719733113,0.192020445531648,-0.0006797041152907667,0.049008293075951254,0.0052719562329086945
112,3.795137580883944,0.2185085549655593,0.00030046174622825835,0.009076305108659435,0.003735927580092468
113,3.7995077519832554,0.2018552927580336,0.0004819878484014471,0.03414453304445182,0.013960504532967712
114,3.803544857838416,0.26880764310614075,0.0011648785092904835,-0.06614227639037557,0.023813188068647184
115,3.808921010700539,0.35619603054772686,-0.00015796701851702771,-0.19688229441276023,0.03147262662050267
116,3.8160449313114935,0.26777416293713063,-0.004095612906772232,-0.06429593695494829,0.023408263972443374
117,3.821400414570236,0.18160610950763342,-0.005381531645871198,0.06375095232240913,0.028965675428229497
118,3.825032536760389,0.3348461123887161,-0.004106512599423015,-0.1676878861999744,0.0025561917036758357
119,3.831729459008163,0.34252609969650605,-0.007460270323422504,-0.18041508133949455,0.03930297131010485
120,3.8385799810020935,0.22794170153268556,-0.011068571950212394,-0.010736566152060534,0.016335198157443893
121,3.8431388150327472,0.298165830692314,-0.011283303273253605,-0.11932040112327776,0.04341943385148511
122,3.8491021316465934,0.15362688546602207,-0.01366971129571916,0.09415699483104854,0.005328298189307794
123,3.852174669355914,0.18674272045610787,-0.01178657139909819,0.040469113357708246,0.007762470439412711
124,3.8559095237650363,0.14675380354551962,-0.010977189131944025,0.0969831504707682,0.004778019001093331
125,3.8588445998359466,0.17774852127880933,-0.009037526122528661,0.04726664616858719,0.0013425467962772805
126,3.862399570261523,0.18515890705507373,-0.008092193199156918,0.03349452493350247,0.00398718206103442
127,3.8661027484026245,0.2061121390682129,-0.007422302700486869,-0.00031337285741860066,0.00489914821961752
128,3.8702249911839885,0.22940968481901716,-0.007428570157635241,-0.03744086583955924,0.011969241781320031
129,3.874813184880369,0.17823444421870302,-0.008177387474426425,0.03713589750349814,0.025884938590598566
130,3.8783778737647427,0.037994101745234626,-0.0074346695243564615,0.24508525276082632,0.007149286613997812
131,3.8791377557996474,0.18005613400990178,-0.0025329644691399348,0.029812320918555235,0.0014222203948514808
132,3.8827388784798456,0.17244391639985812,-0.0019367180507688301,0.040485919946553484,0.013659063479867032
133,3.8861877568078427,0.2489325146523042,-0.0011269996518377605,-0.0748161570086719,0.0126763689883325
134,3.8911664071008887,0.1985796822404984,-0.002623322792011199,0.0003817058156269648,0.002224010506311237
135,3.895138000745699,0.20954277134450702,-0.0026156886756986595,-0.01683412727213644,0.008688397184410694
136,3.899328856172589,0.25018081279340326,-0.0029523712211413883,-0.07855999251050252,8.728512998496673e-05
137,3.904332472428457,0.2498778289309447,-0.004523571071351439,-0.07897351457556533,0.0127915209137873
138,3.909330029007076,0.19927230304722482,-0.006103041362862746,-0.004395927752074855,0.030534049863701004
139,3.9133154750680204,0.049719680553582724,-0.006190959917904243,0.21813454517669617,0.005337944302926595
140,3.914309868679092,0.13713531171367227,-0.0018282690143703196,0.08519348068844412,0.005336760540044385
141,3.9170525749133653,0.17408569309406935,-0.00012439940060143709,0.029230490458902705,0.007195876497677653
142,3.920534288775247,0.1340658525981485,0.00046021040857661705,0.08922367731461488,0.009210786251106306
143,3.9232156058272096,0.19911889513318148,0.0022446839548689148,-0.00822057429922475,0.014265645708848288
144,3.927197983729873,0.12905887042031144,0.0020802724688844198,0.09752913454508061,0.007139604371325303
145,3.9297791611382795,0.1812079570083,0.0040308551597860315,0.019917273585460027,0.001445702519262737
146,3.9334033202784453,0.1734053022946756,0.004429200631495232,0.032806228781931665,0.0033914759614951935
147,3.936871426324339,0.15442343911499004,0.0050853252071338655,0.06258092499285277,0.004519252777399398
148,3.9399598951066386,0.1263154595366369,0.006336943706990921,0.1062374283630226,0.003409033057149823
149,3.942486204297371,0.15158508293295517,0.008461692274251373,0.07019680330822611,0.00826144336252391
150,3.9455179059560304,0.09938905336773787,0.009865628340415895,0.15097575257838136,0.014888200996283346
151,3.9475056870233853,0.2359519325632572,0.012885143391983522,-0.05095814980206456,0.03797670954199442
152,3.9522247256746503,0.07718706893075877,0.01186598039594223,0.1909575038225509,0.009240793635858913
153,3.9537684670532656,0.1820100194692978,0.015685130472393248,0.037222663675981066,0.008373786117734821
154,3.9574086674426514,0.22625613517964258,0.01642958374591287,-0.024527106600046325,0.03678919156980298
155,3.961933790146244,0.06660437707783615,0.015939041613911943,0.21974829035028076,0.012445395918882798
156,3.963265877687801,0.22490145133020725,0.02033400742091756,-0.012981279957961361,0.0028359365202783797
157,3.967763906714405,0.21227581158115036,0.02007438182175833,0.011931050761299283,0.012854628340540243
158,3.972009422946028,0.15306098576676497,0.020313002836984315,0.10663686512886802,0.018693688801197598
159,3.9750706426613633,0.26826323549740233,0.022445740139561677,-0.060159247645789476,0.03616705014411059
160,3.9804359073713114,0.40082184118379205,0.021242555186645886,-0.2523485763880149,0.027769362323826
161,3.9884523441949873,0.33093873862223344,0.016195583658885588,-0.14130273097707835,0.029347869369860967
162,3.995071118967432,0.2424786234982618,0.013369529039344021,-0.0038686665793188635,0.016583946231436195
163,3.9999206914373975,0.17551405943139697,0.013292155707757644,0.10049972694574147,0.02584737678437708
164,4.003430972626026,0.3153523550536369,0.015302150246672475,-0.10533140793697088,0.01950238584878813
165,4.009738019727099,0.37639689155207884,0.013195522087933058,-0.19238883584120986,0.0005242594420087505
166,4.01726595755814,0.3748169820873052,0.00934774537110886,-0.1861398070525137,0.020362418602347727
167,4.024762297199887,0.3204583110959841,0.005624949230058586,-0.1018571658334703,0.027933494407948244
168,4.031171463421806,0.40666543766346475,0.0035878059133891793,-0.2295120836385507,0.015627020896507665
169,4.039304772175075,0.36813717028363524,-0.0010024357593818342,-0.1706652418549047,0.06092571734678663
170,4.046667515580748,0.20321514480703368,-0.004415740596479928,0.0764229560012902,0.006844538461943276
171,4.050731818476889,0.2355858875294225,-0.002887281476454124,0.026569091792670765,0.03083780667182273
172,4.055443536227477,0.10857297006729238,-0.002355899640600709,0.21623881428942276,0.026565871564725507
173,4.057614995628823,0.3275042463781949,0.001968876645187746,-0.11284982268633109,0.005143264230670673
174,4.0641650805563865,0.3430412050428523,-0.0002881198085388759,-0.13557636615215254,0.010195673730226182
175,4.071025904657244,0.31351838245917585,-0.002999647131581927,-0.09137684133726037,0.014696445748713337
176,4.077296272306428,0.35990789468045264,-0.004827183958327134,-0.1618426915480132,0.0071162804794136095
177,4.084494430200037,0.3402842736294513,-0.008064037789287399,-0.1338267894908717,0.005842263705308248
178,4.091300115672626,0.3233449702478895,-0.010740573579104833,-0.11078946198461087,0.0002604119181638354
179,4.097767015077584,0.3242970127111818,-0.01295636281879705,-0.11537511122973665,0.009291233944614284
180,4.104252955331807,0.29607198983399186,-0.015263865043391783,-0.076850194505887,0.024902011919445143
181,4.110174395128487,0.21325606251184442,-0.016800868933509523,0.04287182350286804,0.014806802745888453
182,4.114439516378724,0.14637304925713276,-0.015943432463452163,0.13824296136345327,0.0016080596261450174
183,4.117366977363867,0.15687811384840647,-0.013178573236183096,0.11780019660582627,0.02990617737165406
184,4.120504539640835,0.33691020321368265,-0.010822569304066571,-0.15609887588655005,0.007787839061517688
185,4.127242743705108,0.3601017506902905,-0.013944546821797573,-0.19406593309864406,0.012100528245809879
186,4.134444778718914,0.32669504408972005,-0.017825865483770454,-0.14806030898138653,0.000334243074807586
187,4.140978679600708,0.32593113430906173,-0.020787071663398184,-0.1521551532637468,0.01457109100858047
188,4.147497302286889,0.2816691132740183,-0.02383017472867312,-0.09188742444066218,0.013515015622367187
189,4.1531306845523694,0.32952452418177786,-0.025667923217486364,-0.17065556805926202,0.03564092009487656
190,4.159721175036005,0.2218334421097094,-0.029081034578671606,-0.016717696417027444,0.025318666918448952
191,4.164157843878199,0.11052464345613301,-0.029415388507012155,0.14162628649191022,6.750882424100953e-05
192,4.166368336747321,0.11150874146616546,-0.02658286277717395,0.13150390093834863,0.006924300533297478
193,4.168598511576644,0.16938694493727857,-0.023952784758406977,0.036902827352052234,0.010362583828539105
