,X,v,theta,theta_dot,energy
0,0.0,2.0,-0.17453292519943295,0.0,1.0999713863418736
1,0.04,2.5378372892280394,-0.17453292519943295,-0.8455520626703417,1.484170527455965
2,0.09075674578456079,3.1180665211174627,-0.1914439664528398,-1.7537259960379532,1.824054043835793
3,0.15311807620691004,3.7039882315749475,-0.22651848637359884,-2.672493165121138,2.1518398733119595
4,0.227197840838409,3.1223427277117723,-0.2799683496760216,-1.8883411863073483,1.388226322034193
5,0.2896446953926444,2.682180381304558,-0.31773517340216856,-1.3350444043401608,0.37820977144414947
6,0.3432883030187356,2.8254469885066626,-0.34443606148897177,-1.6310378659285147,1.28174469639616
7,0.39979724278886886,2.3791351245227492,-0.37705681880754205,-1.1001643536426515,0.6655218940344859
8,0.44737994527932384,2.1079743868672334,-0.3990601058803951,-0.8302424529504684,1.0154346521658977
9,0.4895394330166685,1.6401989534234804,-0.4156649549394045,-0.29794578912298564,0.5978050170085432
10,0.5223434120851381,1.291339727208731,-0.4216238707218642,0.06206725125311047,0.7763487681164566
11,0.5481702066293127,0.7183492573088738,-0.42038252569680196,0.7259666595146652,0.44914281904754283
12,0.5625371917754902,0.14510292414239234,-0.40586319250650865,1.3909855582102026,0.119703658506171
13,0.5654392502583381,-0.41780466493606727,-0.3780434813423046,2.050677940840925,0.18275489716820034
14,0.5570831569596167,-0.9485978227446115,-0.3370299225254861,2.682131355659753,0.46030863063085947
15,0.5381112005047245,-1.4816053410884467,-0.283387295412291,3.339441361066941,0.5973661528708135
16,0.5084790936829555,-1.9150139732002949,-0.2165984681909522,3.8814186185728445,0.1995752652221868
17,0.47017881421894964,-1.8037284106457008,-0.1389700958194953,3.6552075095648777,0.40897775932162433
18,0.43410424600603564,-1.560389669744024,-0.06586594562819774,3.252992548447018,0.5784923262079527
19,0.40289645261115514,-1.1607290361093907,-0.0008060946592573781,2.6354509311509244,0.4614170321565014
20,0.37968187188896735,-0.7282850965154772,0.05190292396376111,1.9865482407037436,0.38293549282685435
21,0.3651161699586578,-0.14357767931396936,0.09163388877783599,1.12592082241899,0.05376802747275459
22,0.3622446163723784,0.42093361682876906,0.11415230522621579,0.30960912189921586,0.23669990099237206
23,0.3706632887089538,0.9497950598814869,0.12034448766420011,-0.4450321191423203,0.4552260132412929
24,0.38965918990658355,1.4253120547230702,0.1114438452813537,-1.1178527926582955,0.732416520665684
25,0.418165431001045,1.9431605239403926,0.08908678942818779,-1.8571101213204195,0.9310018922828769
26,0.45702864147985284,2.4305100329913407,0.051944587001779396,-2.5590785467713593,1.3607996656835766
27,0.5056388421396797,3.0036544869442654,0.0007630160663522068,-3.4023707857407333,1.6254853428797338
28,0.565711931878565,2.447044810898557,-0.06728439964846246,-2.567232188011327,1.2558442396720397
29,0.6146528280965362,2.973047384918612,-0.118629043408689,-3.374217428383883,1.6928877741990278
30,0.6741137757949085,2.3886512741926387,-0.18611339197636667,-2.538579314532144,0.9217531001744378
31,0.7218868012787613,1.9959423153501041,-0.23688497826700955,-2.0140905078101072,0.13297481439133632
32,0.7618056475857633,1.930534107116695,-0.2771667884232117,-1.987712775672365,1.0026392385133467
33,0.8004163297280972,1.405702324184797,-0.316921043936659,-1.3109584707172635,0.5819791067216201
34,0.8285303762117932,0.9915798549121058,-0.34314021335100425,-0.8123329260395293,0.5379811604697475
35,0.8483619733100353,0.4518832952769898,-0.35938687187179486,-0.14889737807000614,0.2673307079536306
36,0.857399639215575,-0.12356033191525095,-0.362364819433195,0.5557227981923749,0.05993477630042089
37,0.85492843257727,-0.6989883973532256,-0.35125036346934746,1.2585944115719612,0.3135237778548603
38,0.8409486646302056,-1.1650549577192262,-0.3260784752379082,1.8138522788265043,0.6082502557788727
39,0.8176475654758211,-1.7038619949425486,-0.2898014296613781,2.4852976314289714,0.8412880624303174
40,0.7835703255769702,-2.213250986151162,-0.24009547703279868,3.1335053139652036,1.2443604793723044
41,0.7393053058539469,-2.795174518054436,-0.17742537075349463,3.911440299793396,0.2563844823271425
42,0.6834018154928582,-2.7000324841744834,-0.0991965647576267,3.719077839557498,0.6098782997159203
43,0.6294011658093686,-2.4650702053273217,-0.024815007966476732,3.339251029013962,0.9146524773513138
44,0.5800997617028221,-2.079260097769553,0.04197001261380251,2.7534191768711014,0.6274165440044357
45,0.538514559747431,-1.7663971436022097,0.09703839615122453,2.296873573274258,0.8473919403680106
46,0.5031866168753868,-1.2704205060979439,0.1429758676167097,1.5848931592220883,0.6530261570456598
47,0.4777782067534279,-0.7416494478827986,0.17467373080115145,0.841721501551672,0.39607291187367893
48,0.4629452177957719,-0.19633017562257038,0.1915081608321849,0.08728287052215622,0.08205602565430425
49,0.4590186142833205,0.21590531949245334,0.19325381824262802,-0.4638059449792715,0.11307900416325932
50,0.4633367206731696,0.7769055596827701,0.1839776993430426,-1.2331777496395144,0.38030613015014914
51,0.478874831866825,1.2874697152335661,0.1593141443502523,-1.9323145728803746,0.7089156737500814
52,0.5046242261714964,1.8608586221742427,0.1206678528926448,-2.734865637548107,1.0422617206139726
53,0.5418413986149813,2.4447699610133102,0.06597054014168266,-3.5689734297784237,1.327994294529912
54,0.5907367978352475,1.8772391976225795,-0.005408928453885811,-2.700147807684835,0.7934362190786105
55,0.628281581787699,2.3184553579927574,-0.05941188460758251,-3.3635525841423184,1.299754002348696
56,0.6746506889475541,1.7334350973081196,-0.12668293629042887,-2.505027298804396,0.4048347093824382
57,0.7093193908937165,1.4910731308321599,-0.1767834822665168,-2.1815428636642835,0.13830893416362577
58,0.7391408535103597,1.3961477640429252,-0.22041433953980247,-2.0930780549721586,0.614558472847027
59,0.7670638087912183,0.9399956461576506,-0.26227590063924566,-1.4896818318956568,0.34204189527433515
60,0.7858637217143712,0.5634502259211546,-0.2920695372771588,-1.0204072457023712,0.3115030289440264
61,0.7971327262327943,-0.014746071349826084,-0.3124776821912062,-0.2744955005872779,0.015965008082817606
62,0.7968378048057978,-0.591947840870153,-0.31796759220295173,0.4589998153222461,0.24497374031692168
63,0.7849988479883947,-1.002573161251799,-0.3087875958965068,0.9521473565531322,0.5767307980734072
64,0.7649473847633588,-1.5801523226568697,-0.28974464876544415,1.6881915003073449,0.903755296916424
65,0.7333443383102214,-2.1589289717099014,-0.25598081875929724,2.4361706209957417,1.230697003515702
66,0.6901657588760234,-2.739524557775869,-0.2072574063393824,3.204247157440546,1.5025623691094983
67,0.635375267720506,-3.3016096691509746,-0.14317246319057148,3.9688326399638036,0.997457104463992
68,0.5693430743374865,-2.9905618732175627,-0.06379581039129541,3.46508571271314,0.28223046533112317
69,0.5095318368731353,-3.08755467093687,0.0055059038629673845,3.5915356977150164,1.3127681212860836
70,0.4477807434543979,-2.6496241356271755,0.07733661781726771,2.936268579173083,1.0699594951202829
71,0.39478826074185436,-2.235524174406926,0.13606198940072936,2.339689553473623,0.7193835345162923
72,0.3500777772537158,-1.9077496558415292,0.18285578047020182,1.8924507060670817,1.0489759043027376
73,0.31192278413688523,-1.3497986923347156,0.22070479459154346,1.1229376667633897,0.674515632862316
74,0.2849268102901909,-0.8481969020382122,0.24316354792681125,0.4531474209343954,0.4969367983028541
75,0.26796287224942666,-0.26859289064706215,0.25222649634549915,-0.31989400919666966,0.16961097709667966
76,0.2625910144364854,0.3106921922798378,0.24582861616156576,-1.0879572245297418,0.13731467449905063
77,0.26880485828208217,0.8155523512604598,0.2240694716709709,-1.7509324205142711,0.4425962139261757
78,0.28511590530729136,1.396377500354932,0.18905082326068548,-2.5350637640414284,0.7696200095867564
79,0.31304345531439,1.978769515706429,0.1383495479798569,-3.3378366616839097,0.2200717253496464
80,0.3526188456285186,1.861014832873598,0.0715928147461787,-3.1223472294094083,0.23557227085947643
81,0.38983914228599054,1.7270420408414198,0.009145870157990538,-2.9008725211756006,0.2540693817020767
82,0.42437998310281894,1.5716031927501708,-0.04887158026552148,-2.6650351521184374,0.18282568267449778
83,0.45581204695782235,1.4490444016422113,-0.10217228330789023,-2.495778989894759,0.45411710809588357
84,0.48479293499066656,1.118644395094319,-0.15208786310578543,-2.0327499736673746,0.20251175278611216
85,0.507165822892553,1.3121180078293948,-0.19274286257913292,-2.36415212355517,0.7243033887089816
86,0.5334081830491408,0.7299668549649315,-0.24002590505023633,-1.5634115409768183,0.3007118334282947
87,0.5480075201484395,0.2908332846356212,-0.2712941358697727,-0.9934868978683415,0.1484697307695537
88,0.5538241858411519,-0.28804621625255433,-0.29116387382713954,-0.23571217591232418,0.1717116473809465
89,0.5480632615161009,-0.8423658013649543,-0.29587811734538605,0.4763727911905339,0.49297418541036525
90,0.5312159454888018,-1.420201582053878,-0.28635066152157534,1.2197384581584148,0.7150802186749692
91,0.5028119138477243,-1.9241901044811511,-0.26195589235840705,1.8618971091409022,1.1052338795429515
92,0.46432811175810124,-2.50399925305647,-0.224717950175589,2.6258035734704332,1.340541694238835
93,0.41424812669697186,-3.048308471578814,-0.1722018787061803,3.3562266121304822,1.4140147769341747
94,0.3532819572653956,-3.522902022971655,-0.10507734646357067,4.0072104707727005,1.9705904621762187
95,0.28282391680596247,-2.94810985475074,-0.024933137048116658,3.118941735837303,0.7050997756673606
96,0.22386171971094768,-3.1930999891179113,0.0374456976686294,3.478983134819738,1.7604863040108
97,0.15999971992858947,-2.627415081429415,0.10702536036502416,2.6420570604615694,0.06676146537977105
98,0.10745141830000117,-2.6022658340046227,0.15986650157425555,2.6359544563940385,0.9873825585684148
99,0.055406101619908714,-2.216437521139353,0.21258559070213634,2.111392601729662,0.4946695380028665
100,0.011077351197121652,-1.9918957884284207,0.25481344273672957,1.8441925760013556,0.7332028589257442
101,-0.028760564571446767,-1.621996258451508,0.29169729425675667,1.3813662523627555,0.9055160115152754
102,-0.06120048974047693,-1.0632578444904248,0.3193246193040118,0.6632106864592632,0.5900729528684562
103,-0.08246564663028542,-0.5149762954692342,0.3325888330331971,-0.025342193284101477,0.3046084022171841
104,-0.09276517253967011,0.05203102688533645,0.3320819891675151,-0.7332570347520834,0.012266143883318661
105,-0.09172455200196337,0.6286634524040844,0.3174168484724734,-1.4551022368287247,0.33932102041132844
106,-0.07915128295388169,1.2063041028715282,0.2883148037358989,-2.1865176338808805,0.6662590619294876
107,-0.05502520089645112,1.785659405406336,0.2445844510582813,-2.936085656011039,0.9496420763598816
108,-0.019312012788324395,2.3416466592446104,0.18586273793806052,-3.67405259686812,0.9118333144935752
109,0.02752092039656781,1.933774783837737,0.11238168600069812,-3.0184522576795993,0.8368363124218973
110,0.06619641607332255,2.3870690596883453,0.05201264084710613,-3.6611337678783986,1.3324264769128924
111,0.11393779726708946,1.801754233215381,-0.02121003451046185,-2.7690640335847725,0.10509442060608976
112,0.14997288193139707,1.7407275571745258,-0.07659131518215731,-2.6837798917166675,0.6068485705403496
113,0.1847874330748876,1.3758444794972602,-0.13026691301649065,-2.1605556938001667,0.2639547295325453
114,0.2123043226648328,1.5782278520298152,-0.17347802689249398,-2.4997488860920116,0.8801070921901314
115,0.2438688797054291,0.9955183599709445,-0.22347300461433423,-1.6895511221660127,0.3379451497027981
116,0.263779246904848,0.6412638720732821,-0.2572640270576545,-1.2365384863020945,0.11716001415740196
117,0.27660452434631366,0.45062292922549707,-0.2819947967836964,-1.0347922000018488,0.18159370818678885
118,0.2856169829308236,0.01979230025453721,-0.30269064078373337,-0.4958835442723636,0.0009550011717829332
119,0.28601282893591434,-0.5241427575442179,-0.3126083116691806,0.195288049201349,0.28899721835505593
120,0.27552997378502997,-1.0629676843309115,-0.3087025506851536,0.8739367018235328,0.5512354607798498
121,0.2542706200984117,-1.5802140218704746,-0.29122381664868296,1.5238058482324897,0.9081443094365687
122,0.22266633966100224,-2.1587957680843646,-0.26074769968403316,2.2707204637179315,1.0249548584716592
123,0.17949042429931494,-2.639949605503049,-0.21533329040967453,2.892260811466223,1.5064672609120697
124,0.12669143218925397,-3.2221208063722853,-0.15748807418035007,3.682530078876953,0.9841142813153795
125,0.06224901606180826,-3.5355840595216685,-0.08383747260281102,4.100795665588657,1.9933651479712424
126,-0.008462665128625119,-2.9554348045202605,-0.0018215592910378747,3.209008920133791,0.03656894389401319
127,-0.06757136121903033,-2.9681249502665943,0.06235861911163794,3.227508569037722,0.970926815097077
128,-0.1269338602243622,-2.632826342231353,0.1269087904923924,2.743859775547963,0.49020098403188034
129,-0.17959038706898928,-2.443353451101353,0.18178598600335166,2.4991471942629357,0.9185516616886836
130,-0.22845745609101634,-2.0614630249325194,0.23176892988861036,1.988901730158981,0.07678787308717895
131,-0.2696867165896667,-2.0259671828602497,0.27154696449179,2.0046132773011482,0.7646093917875978
132,-0.3102060602468717,-1.6458490019019432,0.31163923003781296,1.5341862222859075,0.7839480110065441
133,-0.3431230402849106,-1.1684883723138422,0.3423229544835311,0.9427814538863591,0.6769554946811497
134,-0.3664928077311874,-0.5921182339962918,0.3611785835612583,0.22707873948756963,0.34948244323687105
135,-0.37833517241111325,-0.01673298856710881,0.3657201583510097,-0.4764213541492278,0.022195763279193266
136,-0.3786698321824554,0.5585389951734119,0.3561917312680251,-1.1771213255721489,0.30490617250770047
137,-0.36749905227898716,1.1345640755834825,0.33264930475658216,-1.8844046605143276,0.5433381958892973
138,-0.3448077707673175,1.630756549538436,0.2949612115462956,-2.491886679698843,0.8055155890330493
139,-0.31219263977654876,2.1418418891506197,0.24512347795231876,-3.139940041766898,1.1947622931246344
140,-0.26935580199353637,2.7204225875619983,0.1823246771169808,-3.910521361484191,1.2923436224001907
141,-0.2149473502422964,2.2262571057832994,0.10411424988729698,-3.1282524754581478,1.2253707289789104
142,-0.1704222081266304,2.798835335459795,0.04154920037813402,-3.9519147388526132,1.4271480258890021
143,-0.11444550141743448,2.2673606370874078,-0.037489094398918246,-3.143178769705852,1.2392866667865152
144,-0.06909828867568632,1.6985857414458065,-0.1003526697930353,-2.3016350991483034,0.6211311474647394
145,-0.03512657384677019,2.0791985111637357,-0.14638537177600136,-2.8991360892028513,1.1696754882510019
146,0.006457396376504526,1.4956146129335215,-0.2043680935600584,-2.076006337067667,0.7489476965567441
147,0.03636968863517495,0.9786075518296444,-0.24588822030141172,-1.3763014098211213,0.10809162768432992
148,0.05594183967176784,1.0958917595309141,-0.27341424849783413,-1.6185009914612651,0.5903767564295763
149,0.07785967486238612,0.5401797095329655,-0.30578426832705946,-0.8952821476992766,0.255822410324541
150,0.08866326905304543,0.04962637276439802,-0.323689911281045,-0.2820925506403704,0.022488865575413065
151,0.0896557965083334,-0.5271698202689319,-0.3293317622938524,0.4446589734910129,0.2829479613635686
152,0.07911240010295476,-1.0621317619468278,-0.32043858282403215,1.1088947688586268,0.5981336656020686
153,0.057869764864018194,-1.629522751116744,-0.29826068744685963,1.8240537490142987,0.8923695975239091
154,0.025279309841683313,-2.1846770558367155,-0.26177961246657366,2.5336250269601743,1.243637076248626
155,-0.018414231275051,-2.76523339025633,-0.21110711192737017,3.2987038360737935,1.405203864239875
156,-0.0737188990801776,-3.286561993094908,-0.1451330352058943,4.0017306148324945,0.962275865950981
157,-0.13945013894207575,-2.98494772900631,-0.0650984229092444,3.5115461962233163,0.09572268936850957
158,-0.19914909352220195,-3.0178417555051227,0.005132501015221919,3.5416573026898543,1.1886219672217324
159,-0.2595059286323044,-2.611965418135834,0.07596564706901901,2.934359764160201,0.02689170449999417
160,-0.31174523699502105,-2.62299026861393,0.13465284235222302,2.973161772099955,1.198612235235913
161,-0.36420504236729967,-2.1546694610647164,0.19411607779422213,2.316507837183182,0.4879932532791684
162,-0.407298431588594,-1.9249703350877279,0.24044623453788577,2.0351426595960254,0.6308773323406994
163,-0.4457978382903486,-1.5933932684076224,0.2811490877298063,1.6220973670422534,0.5898506547953161
164,-0.47766570365850103,-1.220729519342473,0.31359103507065134,1.166622632586138,0.7022896250579779
165,-0.5020802940453505,-0.6431836366159452,0.33692348772237407,0.4332445818752496,0.3411389473619685
166,-0.5149439667776694,-0.11896147218884123,0.34558837935987907,-0.21168597952232715,0.07681292486542025
167,-0.5173231962214462,0.4570121027930536,0.3413546597694325,-0.9249732138023806,0.24442875368374128
168,-0.5081829541655851,1.0196530806299622,0.3228551954933849,-1.6218192389546429,0.49862922957281924
169,-0.4877898925529859,1.5248389152828965,0.2904188107142921,-2.2471671350586613,0.8558088634472361
170,-0.45729311424732794,2.1042046375487677,0.24547546801311887,-2.995635531751482,1.1827256357724092
171,-0.4152090214963526,2.6858040968681807,0.18556275737808922,-3.770434675150323,0.12428625814534752
172,-0.361492939558989,2.637695080745385,0.11015406387508275,-3.645267112913384,1.483492516250225
173,-0.3087390379440813,2.0527046273078455,0.03724872161681507,-2.740779880319826,1.1568872111862967
174,-0.2676849453979244,2.6377503262501047,-0.017566875989581447,-3.6067911083617714,1.3456264589110354
175,-0.21492993887292233,2.107166462289465,-0.08970269815681689,-2.8162025068744754,1.1187371851697294
176,-0.17278660962713305,1.5568555097081802,-0.1460267482943064,-2.020392179340948,0.5040543526884076
177,-0.14164949943296945,1.8931964858474601,-0.18643459188112535,-2.5623135897419296,1.0561282411095245
178,-0.10378556971602024,1.3169991899007827,-0.23768086367596394,-1.7674895249236995,0.6957223951552371
179,-0.07744558591800459,0.7740604417594663,-0.27303065417443795,-1.0451992632637346,0.04976841757190771
180,-0.061964377082815256,0.8437808096326167,-0.29393463943971265,-1.2251833655037312,0.46599662233229794
181,-0.04508876089016292,0.27583592855665995,-0.3184383067497873,-0.4949814162385494,0.14807215569486287
182,-0.03957204231902972,-0.2835805968366899,-0.3283379350745583,0.20991018046113408,0.16472549804447545
183,-0.045243654255763516,-0.8601953209974965,-0.3241397314653356,0.9338215595664264,0.47550832902058626
184,-0.06244756067571344,-1.4178555372101531,-0.30546330027400703,1.6331146368015976,0.7565582672675365
185,-0.09080467141991651,-1.9590250763650645,-0.2728010075379751,2.3188748834743356,1.0216318552800001
186,-0.1299851729472178,-2.490656622874967,-0.2264235098684884,3.007620205846552,1.149846969440025
187,-0.17979830540471714,-2.9637825871764893,-0.16627110575155735,3.6331935480171467,1.104418370726505
188,-0.23907395714824692,-3.347609562318151,-0.09360723479121441,4.152335069532498,1.4005658352961088
189,-0.30602614839460995,-2.9156038922624634,-0.010560533400564454,3.47968316509841,0.5419662484872236
190,-0.36433822623985923,-2.723830911331092,0.05903312990140375,3.1889349950344883,0.35130779707673204
191,-0.4188148444664811,-2.591253671130921,0.12281182980209351,3.007761210383813,0.6496318670540185
192,-0.47063991788909953,-2.3341577487213523,0.18296705400976976,2.6610379392270236,0.8321378398381127
193,-0.5173230728635265,-1.969971396692284,0.23618781279431023,2.177369496949046,0.707184880759206
194,-0.5567225007973722,-1.6055050187869613,0.27973520273329117,1.7146433135032195,0.7398861938082146
195,-0.5888326011731114,-1.1396284757069335,0.31402806900335556,1.124166160345464,0.6300946996150981
196,-0.6116251706872501,-0.5839964080680685,0.3365113922102648,0.4222904413797913,0.33954298346675016
