,X,v,theta,theta_dot,energy
0,0.0,2.0,-0.3490658503988659,0.0,1.2
1,0.04,2.5849681641063675,-0.3490658503988659,-0.9250893229458977,1.3783570970739392
2,0.09169936328212736,3.1130340658471196,-0.3675676368577839,-1.7699726918153065,1.8230892260676996
3,0.15396004459906976,2.5368235728919526,-0.40296709069409,-1.069037544466678,1.3622086103695272
4,0.2046965160569088,2.0142109469112692,-0.42434784158342354,-0.46320128692305995,0.47538812857333124
5,0.24498073499513418,1.7898187731893873,-0.4336118673218847,-0.277513508065494,0.5760342646275727
6,0.28077711045892195,1.4832074091666676,-0.4391621374831946,0.01631568519576526,0.6809139868429877
7,0.3104412586422553,1.046816492766057,-0.4388358237792793,0.4837839064789627,0.4978320094312261
8,0.3313775884975764,0.6028096871788864,-0.42916014564970006,0.9617711447996613,0.38564076885338094
9,0.3434337822411542,0.029754866003590896,-0.40992472275370684,1.6210670924361081,0.05867950309083976
10,0.34402887956122596,-0.5447141430320306,-0.3775033809049847,2.2942083372034525,0.20182175078589795
11,0.3331345967005854,-0.9779483832791607,-0.33161921416091567,2.7899335920744033,0.5141719044697889
12,0.31357562903500213,-1.556881584300081,-0.2758205423194276,3.5153009658268104,0.6486846029306024
13,0.2824379973490005,-2.0054587897351714,-0.20551452300289139,4.082666883644081,0.5483744486361822
14,0.24232882155429705,-1.7132412698281523,-0.12386118533000977,3.5935678522282455,0.29449843224391625
15,0.20806399615773402,-1.527948945704011,-0.05198982828544485,3.2814365026163186,0.6234787925527849
16,0.1775050172436538,-1.0866923670291957,0.013638901766881525,2.605167826725104,0.48922811118062876
17,0.15577116990306988,-0.5939248971028808,0.06574225830138361,1.8700950818935085,0.27566765627999784
18,0.14389267196101227,-0.06666704294826087,0.10314415993925377,1.1002311131580735,0.009961116313325214
19,0.14255933110204705,0.5037724545078852,0.12514878220241524,0.27939003462995005,0.24878568262899617
20,0.15263478019220475,0.9715203945309951,0.13073658289501425,-0.3800467935385189,0.5071183540864552
21,0.17206518808282464,1.4874400350862431,0.12313564702424387,-1.1089949185654002,0.862408976077442
22,0.2018139887845495,2.0705614371512575,0.10095574865293587,-1.9409437964925318,1.169252999648062
23,0.24322521752757464,2.644430080959646,0.06213687272308523,-2.7677332102367806,1.5112288591201057
24,0.29611381914676754,3.2292061811822697,0.006782208518349618,-3.6249480566499948,1.8387260483183
25,0.36069794277041295,2.643831979476177,-0.06571675261465029,-2.744912994682172,1.5117719423541893
26,0.4135745823599365,3.2294700783029606,-0.12061501250829373,-3.6407807543188646,1.8396312831221473
27,0.4781639839259957,2.6448805559761306,-0.19343062759467103,-2.8056420854921944,1.367644341634705
28,0.5310615950455183,2.118156294837114,-0.24954346930451493,-2.0868050082949723,0.6975729687857117
29,0.5734247209422606,1.786232939919874,-0.2912795694704144,-1.6769485402418485,0.46581712433516526
30,0.6091493797406581,1.5257566261191617,-0.32481854027525137,-1.3871224291441253,0.579390108795725
31,0.6396645122630413,1.1468163088612158,-0.35256098885813386,-0.9422611281035014,0.6640574399206133
32,0.6626008384402656,0.5708240951671653,-0.3714062114202039,-0.23293436065946893,0.30823810291493686
33,0.674017320343609,0.04465155277413224,-0.3760648986333933,0.39581086210816585,0.030328874654456675
34,0.6749103513990916,-0.42766068578613947,-0.36814868139123,0.9467939760700527,0.19990212184183725
35,0.6663571376833688,-0.921946367611794,-0.34921280186982895,1.5327359376621312,0.5019089887620986
36,0.647918210331133,-1.4852509930890192,-0.31855808311658634,2.226098741689415,0.7407696948135727
37,0.6182131904693525,-1.9993078740653978,-0.27403610828279806,2.866309156590928,0.9181075799005063
38,0.5782270329880446,-2.473439719988209,-0.2167099251509795,3.4714076157202536,1.1303168873158478
39,0.5287582385882804,-2.9470279884015746,-0.14728177283657443,4.101959090578246,0.9306276172230519
40,0.46981767882024894,-2.6191119467784234,-0.0652425910250095,3.5722657735667176,0.4163914027401749
41,0.41743543988468046,-2.453693370062831,0.006202724446324859,3.305498094395524,1.1417779283175322
42,0.3683615724834238,-1.970154375078475,0.07231268633423533,2.5820271438515383,0.7019685945578691
43,0.3289584849818543,-1.6013435263886635,0.1239532292112661,2.051498065203128,0.905442904859036
44,0.29693161445408106,-1.0178821309049466,0.16498319051532867,1.219369772139093,0.5779951595837132
45,0.27657397183598215,-0.4357503661765838,0.18937058595811054,0.4063144848635528,0.24537066724414894
46,0.26785896451245045,0.13335963818465568,0.1974968756553816,-0.376746689924906,0.05430178678484886
47,0.27052615727614354,0.5838842525700314,0.18996194185688348,-0.981709503207716,0.32399034095095214
48,0.2822038423275442,1.165251710855433,0.17032775179272916,-1.7825602025074154,0.6182300385477202
49,0.30550887654465286,1.718031523086695,0.13467654774258087,-2.5498966469485733,0.8575573829315843
50,0.33986950700638674,2.238266484446239,0.0836786148036094,-3.2837075319865043,0.011702777221077265
51,0.3846348366953115,2.2434134900627942,0.01800446416387931,-3.26682821386953,1.0099969835252298
52,0.4295031064965674,1.7730055023783249,-0.047332100113511286,-2.5560375686127594,0.8539012109028656
53,0.4649632165441339,2.2760165400195116,-0.09845285148576648,-3.3236195427659987,1.2757671381340165
54,0.5104835473445242,1.6914075136508007,-0.16492524234108646,-2.4798509174079255,0.7401446845765962
55,0.5443116976175402,1.2368296336604552,-0.21452226068924496,-1.8555051043599036,0.10187222839481405
56,0.5690482902907493,1.153307898635097,-0.251632362776443,-1.7956811188820592,0.6447830443163484
57,0.5921144482634513,0.573248359334855,-0.2875459851540842,-1.0261949528406387,0.23356864421413823
58,0.6035794154501484,0.1483189678899523,-0.308069884210897,-0.4983488804834547,0.0696596481417094
59,0.6065457948079475,-0.3801586162106519,-0.31803686182056606,0.1679002127925303,0.1903581815103239
60,0.5989426224837344,-0.8704221275075332,-0.3146788575647155,0.7744817075277907,0.4417175868325396
61,0.5815341799335838,-1.3777770662677025,-0.29918922341415966,1.4071479796212083,0.7898400179112998
62,0.5539786386082297,-1.9559974283592485,-0.27104626382173547,2.14929284612071,1.035105038047731
63,0.5148586900410448,-2.49323163882642,-0.22806040689932128,2.8470081189993532,1.4198450187634242
64,0.46499405726451637,-3.0750507443148116,-0.17112024451933422,3.630668950877215,1.4268376612566551
65,0.40349304237822015,-3.551930239744818,-0.09850686550178991,4.285476503192463,1.7327290354516485
66,0.33245443758332377,-3.049154232552738,-0.012797335437940649,3.5060543849620567,0.8792290435978602
67,0.271471352932269,-2.7523021629232955,0.05732375226130049,3.0570504280940325,0.8076178650911863
68,0.21642530967380308,-2.451238205472103,0.11846476082318114,2.623040218442639,0.3296309099437817
69,0.16740054556436101,-2.314439198171885,0.17092556519203392,2.4540271252329884,0.7373180632716069
70,0.12111176160092332,-1.9903050823640192,0.22000610769669368,2.0249187767422354,0.9721067164453506
71,0.08130565995364294,-1.4952950556662916,0.2605044832315384,1.364462494335727,0.8613552027943647
72,0.05139975884031711,-0.9158434375552111,0.28779373311825296,0.6003359781902581,0.5338349123456118
73,0.03308289008921289,-0.33768917369072005,0.2998004526820581,-0.14778010504151107,0.1816944128305795
74,0.02632910661539849,0.1701641166622202,0.2968448505812279,-0.7887542896235263,0.08147903657582727
75,0.029732388948642895,0.7480780591208137,0.28106976478875734,-1.5317155344994593,0.3707149957716907
76,0.044693950131059174,1.273103363854061,0.25043545409876816,-2.2067991373109934,0.7052439229087655
77,0.0701560174081404,1.8535946591507246,0.20629947135254828,-2.9775122895400474,0.9912791329171748
78,0.10722791059115488,2.4129191978538715,0.14674922556174733,-3.7384861701222296,1.285408854527489
79,0.15548629454823232,1.8548730259349264,0.07197950215930274,-2.8674244474614645,0.9245593597537867
80,0.19258375506693085,2.3772257222551385,0.01463101321007345,-3.627780912230931,1.3274408292643174
81,0.24012826951203362,1.791847089340396,-0.05792460503454517,-2.745505579252616,0.6625781326396344
82,0.27596521129884155,1.404693404511344,-0.11283471661959749,-2.182769342774943,0.6580203879511761
83,0.30405907938906845,1.8967293337812217,-0.15649010347509634,-2.9492329481678983,0.9506864247314191
84,0.3419936660646929,1.3730514479422506,-0.21547476243845431,-2.219135364444914,0.7650150866927888
85,0.3694546950235379,0.7915987746703935,-0.2598574697273526,-1.4299860020757937,0.3271073326152238
86,0.38528667051694576,0.35899178520291364,-0.28845718976886847,-0.8784028285637216,0.15677364665304486
87,0.39246650622100404,-0.11127955801741501,-0.3060252463401429,-0.28577568512123164,0.07419275160927839
88,0.3902409150606557,-0.6887145851089624,-0.3117407600425675,0.45156051787785934,0.4011279798218919
89,0.37646662335847647,-1.2654566695304141,-0.30270954968501035,1.1848016461491255,0.6964962112990266
90,0.35115748996786816,-1.8179802507807215,-0.27901351676202785,1.8882603681487948,1.0410256805545064
91,0.31479788495225375,-2.3972919781228854,-0.24124830939905195,2.6426530988940415,1.3017036100762887
92,0.266852045389796,-2.9502937841602757,-0.1883952474211711,3.3778928158198775,1.5840227720299893
93,0.2078461697065905,-3.5005257625196915,-0.12083739110477357,4.133575974446496,1.7045839015460125
94,0.13783565445619667,-2.9994300542006145,-0.038165871615843644,3.3519735662827093,0.06360038743883986
95,0.07784705337218437,-3.021093011084738,0.028873599709810543,3.3732262958735157,0.7948676335806828
96,0.017425193150489605,-2.750820987075169,0.09633812562728086,2.976474898231008,0.6968273189707301
97,-0.03759122659101378,-2.49172530725217,0.155867623591901,2.617913108513222,0.8983057644943556
98,-0.08742573273605718,-2.1244802588623832,0.20822588576216544,2.1193633403963794,0.46557097624512905
99,-0.12991533791330484,-1.9034891258451294,0.25061315257009303,1.8558140000683743,0.5442232883124638
100,-0.1679851204302074,-1.6160129729936044,0.2877294325714605,1.5109820822053714,0.8243240323980102
101,-0.20030537989007952,-1.103605831427045,0.31794907421556795,0.8573984999775157,0.63784818887687
102,-0.2223774965186204,-0.52837040031564,0.33509704421511827,0.12970279568855647,0.27549407686227634
103,-0.23294490452493322,-0.022719405954231053,0.3376911001288894,-0.4899009394040741,0.021051403713328653
104,-0.23339929264401785,0.4384409422383028,0.3278930813408079,-1.0451684506397243,0.2184355951626588
105,-0.2246304737992518,0.9721959413048908,0.3069897123280134,-1.7084632035710938,0.5386696250662938
106,-0.205186554973154,1.5504274185703075,0.2728204482565915,-2.446415832165008,0.8420668302310693
107,-0.17417800660174784,2.1147397999238913,0.22389213161329136,-3.18235966281232,1.060876909165194
108,-0.13188321060327002,2.636590164913435,0.16024493835704495,-3.880321939058624,1.3399972241728322
109,-0.07915140730500131,2.1065694952753056,0.08263849957587246,-3.048566045050417,0.8923316807287891
110,-0.037020017399495196,2.5482327113102223,0.021667178674864125,-3.684531952065825,1.385372960038673
111,0.013944636826709253,1.980529831640903,-0.05202346036645238,-2.8268078607976976,0.8853291963574914
112,0.05355523345952731,1.5146995387128057,-0.10855961758240634,-2.1442957637801636,0.724999412979388
113,0.08384922423378342,2.0141203947060546,-0.1514455328580096,-2.920870928009594,1.0931894665781712
114,0.12413163212790451,1.4497063239619168,-0.2098629514182015,-2.1282952034373426,0.8133273644308832
115,0.15312575860714284,0.8681886496435274,-0.2524288554869483,-1.3364046997329804,0.01851309283106956
116,0.1704895316000134,0.848999571367333,-0.2791569494816079,-1.3819617070208294,0.39530307079528054
117,0.18746952302736006,0.3660842062445636,-0.3067961836220245,-0.766640859531768,0.16988444723980645
118,0.19479120715225134,-0.1244872344093148,-0.3221290008126598,-0.15393354531841563,0.07376044564842398
119,0.19230146246406504,-0.6650407802546838,-0.32520767171902815,0.5221140341023663,0.38550785650550723
120,0.17900064685897138,-1.2418411699233953,-0.3147653910369808,1.2480299658631375,0.6175618149118551
121,0.15416382346050347,-1.7418712599762132,-0.28980479171971807,1.8702042034422877,0.9959829701066221
122,0.11932639826097921,-2.320825460045203,-0.2524007076508723,2.618406680479168,1.151923402241902
123,0.07290988906007514,-2.8264271723872616,-0.20003257404128894,3.279359363617997,1.6076828506069216
124,0.016381345612329914,-3.4094007589884816,-0.13444538676892898,4.077964927020338,1.4319219053762098
125,-0.05180666956743972,-2.977048376725931,-0.05288608822852221,3.395880816710295,0.4210817132436435
126,-0.11134763710195833,-3.1223923546500836,0.015031528105683686,3.5980507031303213,1.4242163708996631
127,-0.17379548419496,-2.6528631439486143,0.08699254216829011,2.89825555490504,0.029561284520815318
128,-0.22685274707393227,-2.6419631202039384,0.1449576532663909,2.907510907635895,0.8861961944891638
129,-0.27969200947801104,-2.2991395748816896,0.2031078714191088,2.441137332453355,0.9090727126696704
130,-0.32567480097564483,-1.897213528445305,0.2519306180681759,1.909945005653207,0.5191233221118393
131,-0.3636190715445509,-1.6217787854045023,0.29012951818124005,1.5831214592120315,0.7769516529126107
132,-0.39605464725264095,-1.1398592347110088,0.32179194736548067,0.9745599924933345,0.6587844375571862
133,-0.4188518319468611,-0.5627272073896266,0.34128314721534736,0.24628056037034085,0.33131252558852414
134,-0.43010637609465363,0.01341279691206465,0.34620875842275417,-0.46968620383881043,0.004022137634948529
135,-0.4298381201564123,0.589420775036827,0.336815034345978,-1.1826686715007628,0.2662647197611501
136,-0.41804970465567576,1.0640214714384681,0.3131616609159627,-1.7574075066671075,0.541635378014023
137,-0.3967692752269064,1.5921344243887532,0.27801351078262054,-2.4204772266020185,0.8913887309447364
138,-0.36492658673913136,2.1720878583317442,0.22960396625058016,-3.1763171336656946,1.1707448748495382
139,-0.32148482957249647,2.731532158851496,0.16607762357726627,-3.926548989307487,1.532718792469711
140,-0.26685418639546654,2.147482612507753,0.08754664379111653,-3.0139260931111664,1.0543161718095366
141,-0.22390453414531147,2.65827808127215,0.027268121928893198,-3.751479112686486,1.492683148744358
142,-0.17073897251986847,2.0729275495391164,-0.04776146032483653,-2.865763888711896,0.8525027782507093
143,-0.12928042152908614,1.645259699344285,-0.10507673809907445,-2.239030188828183,0.5083177498913999
144,-0.09637522754220045,1.9671085943315623,-0.1498573418756381,-2.7499765474952667,1.1064515845146612
145,-0.0570330556555692,1.3837098725587584,-0.20485687282554343,-1.928579565944592,0.47972780098260376
146,-0.029358858204394035,1.026402604618945,-0.24342846414443528,-1.4636330933897443,0.19517792586540703
147,-0.008830806112015137,0.8321565316444566,-0.2727011260122302,-1.2517175658132116,0.3079673845004311
148,0.007812324520873996,0.45107883242149777,-0.2977354773284944,-0.7804081327277131,0.21554343151744615
149,0.01683390116930395,-0.04592648239327707,-0.3133436399830487,-0.15394677192752715,0.030570861422624062
150,0.01591537152143841,-0.6050761415764632,-0.31642257542159924,0.5533158383947663,0.3486787334048528
151,0.003813848689909147,-1.182205012687224,-0.3053562586537039,1.284547914932424,0.6757789109764304
152,-0.019830251563835333,-1.7601209008439334,-0.27966530035505544,2.0229339917878413,0.9768017894263242
153,-0.055032669580714004,-2.3244889823862707,-0.2392066205192986,2.7554417833363676,1.3212311986086656
154,-0.10152244922843942,-2.905920390778383,-0.18409778485257125,3.5330976214793943,1.5296195951265201
155,-0.15964085704400707,-3.4474662862175993,-0.11343583242298336,4.277870212599381,1.9521371867539488
156,-0.22859018276835907,-2.8630563279928944,-0.027878428170995742,3.373610576280526,0.2244339900854129
157,-0.28585130932821695,-2.9437663760703625,0.03959378335461479,3.486433408921953,1.3579328172318892
158,-0.3447266368496242,-2.468353335073504,0.10932245153305385,2.7855102727717727,0.22175722536596845
159,-0.39409370355109424,-2.376822114972673,0.1650326569884893,2.6811098881275743,0.8818356556580381
160,-0.4416301458505477,-1.9975954612294406,0.2186548547510408,2.168298397583997,0.5059651822919504
161,-0.4815820550751365,-1.7409748117444905,0.26202082270272076,1.856306095316127,0.759926273915506
162,-0.5164015513100263,-1.2992131180612505,0.2991469446090433,1.2924362255654358,0.7459830471090053
163,-0.5423858136712513,-0.721079808856073,0.324995669120352,0.5503934537930819,0.3563741623149265
164,-0.5568074098483727,-0.23045615730354613,0.33600353819621365,-0.053141777184051,0.13964222308291446
165,-0.5614165329944436,0.3458620168867849,0.3349407026525326,-0.7723406587948227,0.1875712111024731
166,-0.5544992926567079,0.9224085791253833,0.31949388947663615,-1.4924606217133771,0.5146164456998382
167,-0.5360511210742003,1.5000111646535044,0.2896446770423686,-2.2226783861516024,0.8415476101046612
168,-0.5060508977811302,2.079370045136936,0.24519110931933658,-2.9715474350013364,1.0262984118676697
169,-0.4644634968783915,2.5900267834603343,0.18576016061930983,-3.6432565910524355,0.9202650611619811
170,-0.41266296120918483,2.9589304891193544,0.11289502879826112,-4.1327923578291745,1.6261469639675856
171,-0.35348435142679774,2.387327737268378,0.03023918164167763,-3.2477256820214935,1.0016562675263758
172,-0.3057377966814302,1.9509206556597207,-0.034715331998752236,-2.584525362864966,0.7647635660635087
173,-0.26671938356823577,2.3580506970558006,-0.08640583925605155,-3.2050567287340597,1.3280471925823039
174,-0.21955836962711975,1.7733716128505794,-0.15050697383073275,-2.3566816814717853,0.7349702964360981
175,-0.18409093737010815,1.3454751527283992,-0.19764060746016845,-1.7661751057128467,0.19282540208977417
176,-0.15718143431554016,1.4956874991679177,-0.2329641095744254,-2.044836043972796,0.8434291033702848
177,-0.1272676843321818,0.9148664361620548,-0.2738608304538813,-1.2650131749200115,0.2962009708088776
178,-0.10897035560894071,0.5838179748481094,-0.2991610939522816,-0.8664582213226417,0.3046679961863612
179,-0.09729399611197852,0.04694722091998427,-0.3164902583787344,-0.18356780146229124,0.023413458435840674
180,-0.09635505169357883,-0.5300970649699078,-0.32016161440798024,0.5475065540134421,0.2836545000585121
181,-0.10695699299297699,-1.068445349224186,-0.3092114833277114,1.2214667086121338,0.581757718171229
182,-0.12832589997746072,-1.6199785984586188,-0.28478214915546873,1.9200644701927834,0.8327015493637506
183,-0.16072547194663309,-2.1430817578936647,-0.24638085975161306,2.5905167523040458,1.2169165065590812
184,-0.2035871071045064,-2.724123205224047,-0.19457052470553216,3.36405368090317,1.4254019186012512
185,-0.2580695712089873,-3.262492011953893,-0.12728945108746875,4.0995255222291,1.4989353245617278
186,-0.3233194114480652,-2.7880505811933944,-0.045298940642886754,3.3562988640102205,0.8429626460561239
187,-0.37908042307193307,-3.0998971019276746,0.02182703663731765,3.810275462464641,1.4859968183680126
188,-0.4410783651104866,-2.60462418312338,0.09803254588661048,3.073959684741185,0.4315153819664985
189,-0.4931708487729542,-2.4345254105749614,0.15951173958143416,2.8488120060295596,0.7941660278281294
190,-0.5418613569844535,-2.1003364369791426,0.21648797970202535,2.400590194097929,0.6004762390467463
191,-0.5838680857240364,-1.8093774751807103,0.26449978358398396,2.037490628632523,0.8908944796281256
192,-0.6200556352276506,-1.3092575626876588,0.30524959615663444,1.3902588567354526,0.717534529703376
193,-0.6462407864814038,-0.7560973552563268,0.3330547732913435,0.687231990153425,0.43598833754492866
194,-0.6613627335865303,-0.17952116880538005,0.346799413094412,-0.03398846516470899,0.08430851194767575
195,-0.6649531569626379,0.2666202799373123,0.3461196437911178,-0.5634318251247932,0.1308846012500084
196,-0.6596207513638916,0.7843975731741837,0.33485100728862194,-1.1942989862589286,0.43975090721203736
