,X,v,theta,theta_dot,energy
0,0.0,2.0,-0.17453292519943295,0.0,0.005661247654386981
1,0.04,1.999691630923081,-0.17453292519943295,-0.0505970378474688,0.007546866289108665
2,0.07999383261846163,2.005816358996914,-0.17554486595638233,-0.11069712161984957,0.03047422730672883
3,0.12011015979839991,2.0231009282601797,-0.17775880838877933,-0.18757104813717018,0.010386044701098248
4,0.1605721783636035,2.030603019657362,-0.18151022935152272,-0.2506331616514046,0.10729017534518075
5,0.20118423875675073,2.0848427617108416,-0.18652289258455082,-0.38372768319521516,0.14858115868865812
6,0.24288109399096758,2.1573520759705005,-0.1941974462484551,-0.5451254497737659,0.6896045603229545
7,0.2860281355103776,1.8454541402611417,-0.20509995524393043,-0.14280859315507888,0.33470228351903003
8,0.3229372183156004,2.025317337925234,-0.207956127107032,-0.4668261774564701,0.38097464547631466
9,0.3634435650741051,1.843321164099699,-0.2172926506561614,-0.26041298074026575,0.03470342711120036
10,0.40030998835609904,1.8647364199776055,-0.22250091027096672,-0.3551629841503712,0.29254129347668945
11,0.43760471675565116,1.71397639786211,-0.22960416995397415,-0.1994744672587789,0.00701363001319977
12,0.47188424471289336,1.721131667184434,-0.23359365929914971,-0.2768377800964492,0.0843838303868669
13,0.506306878056582,1.7723179375595979,-0.2391304149010787,-0.4195855915438238,0.5372760819985269
14,0.541753236807774,1.4779096154364266,-0.24752212673195517,-0.060175711612430016,0.2963310591317021
15,0.5713114291165026,1.6764115540543931,-0.24872564096420377,-0.42088454384618607,0.43010032390902153
16,0.6048396601975904,1.4277942010010947,-0.2571433318411275,-0.13180828899316271,0.10005649927709222
17,0.6333955442176122,1.4996242870188317,-0.25977949762099073,-0.3107805465288764,0.467582503842148
18,0.6633880299579888,1.197630972861737,-0.26599510855156827,0.05149105823090344,0.30588091646808996
19,0.6873406494152235,1.448704761735837,-0.2649652873869502,-0.3891583886693777,0.6152762592150144
20,0.7163147446499403,1.035081505279668,-0.27274845516033774,0.13263283065163844,0.3656590616996646
21,0.7370163747555336,1.3796942073861846,-0.270095798547305,-0.4443753905825334,0.5632641533279605
22,0.7646102589032573,0.9814170485970933,-0.27898330635895563,0.05293505639654039,0.18855089031947747
23,0.7842385998751992,1.171154501319697,-0.2779246052310248,-0.30162833557528484,0.5510837210029245
24,0.8076616899015931,0.7131436279745442,-0.2839571719425305,0.27836305661727706,0.267660475780909
25,0.821924562461084,1.0749351723219567,-0.27838991081018494,-0.3249580042665558,0.4292312530240117
26,0.8434232659075231,0.6860643678097722,-0.28488907089551607,0.1550968931462755,0.05722032547651151
27,0.8571445532637186,0.7700153110318241,-0.28178713303259056,-0.04838277752011763,0.1639889625997031
28,0.8725448594843551,0.5666503885301364,-0.2827547885829929,0.1628801577423834,0.0023895559564773693
29,0.8838778672549579,0.5664237389575459,-0.2794971854281452,0.08118001414747669,0.04462755967426508
30,0.8952063420341088,0.49423862839443305,-0.27787358514519567,0.10414940638756987,0.05500660938725445
31,0.9050911146019974,0.3909974723980586,-0.2757905970174443,0.1724232271874338,0.010809692826756302
32,0.9129110640499586,0.36840831655518164,-0.2723421324736956,0.12496802556300038,0.04620749052176475
33,0.9202792303810622,0.25216082859335415,-0.2698427719624356,0.21383008322484764,0.04057623630138244
34,0.9253224469529293,0.10523482205719173,-0.26556617029793866,0.3478693456608387,0.021871409328521663
35,0.9274271433940732,0.2849979729465704,-0.2586087833847219,0.010515312356844997,0.07960895956366164
36,0.9331271028530046,0.01774497000842118,-0.25839847713758496,0.32287791070471744,0.003996165911624338
37,0.933482002253173,0.1427052436665276,-0.25194091892349063,0.0665338728069288,0.026107175067943134
38,0.9363361071265036,-0.027950301070818834,-0.25061024146735206,0.2411463831891165,0.00023606186351766279
39,0.9357771011050873,-0.011300612485601786,-0.24578731380356972,0.1440414391169036,0.00029621623067650386
40,0.9355510888553752,-0.06609200897146413,-0.24290648502123163,0.15222239223380898,0.003975644207641224
41,0.9342292486759459,-0.12781479332487,-0.23986203717655546,0.1713742840050089,0.013198976100432367
42,0.9316729528094485,-0.23117539793776792,-0.2364345514964553,0.25213131455205784,0.04927133339369184
43,0.9270494448506932,-0.44553482508227465,-0.23139192520541413,0.49585908328204853,0.020708880950325748
44,0.9181387483490477,-0.48991641396566005,-0.22147474353977314,0.49323341124135545,0.022713298854154018
45,0.9083404200697346,-0.5340860802681877,-0.21161007531494602,0.4932870514855408,0.007613869621256197
46,0.8976586984643709,-0.5167427786549996,-0.2017443342852352,0.4061022945820197,0.0030306288564331037
47,0.8873238428912709,-0.5198798765278067,-0.1936222883935948,0.3518011981333715,0.09285901563921654
48,0.8769262453607147,-0.33800067298279013,-0.18658626443092738,0.027510432102406168,0.06108515081090121
49,0.8701662319010589,-0.1588772186194068,-0.18603605578887925,-0.29104985802785566,0.04792107440263273
50,0.8669886875286708,-0.427631898778377,-0.19185705294943636,0.050746522796022264,0.12028153038612188
51,0.8584360495531033,-0.7000971106383742,-0.19084212249351593,0.3958849124644896,0.1521324246960964
52,0.8444341073403357,-0.9143857734034317,-0.18292442424422614,0.6557146166997506,0.12784572356702578
53,0.8261463918722671,-1.0524906244480572,-0.16981013191023114,0.8059353082085345,0.12823448429685558
54,0.805096579383306,-0.9273744438813153,-0.15369142574606046,0.5712757873301832,0.04898068855039507
55,0.7865490905056798,-0.8723519192589452,-0.1422659099994568,0.4447072488639983,0.2542806696143324
56,0.7691020521205009,-0.5797372657062151,-0.13337176502217682,-0.03146564729926549,0.23708175041475113
57,0.7575073068063766,-0.18036453443527506,-0.13400107796816213,-0.6642997512137713,0.0486688288866962
58,0.7539000161176711,-0.4040534858632975,-0.14728707299243757,-0.37105280740699365,0.10233168732758724
59,0.7458189464004051,-0.6389143980535317,-0.15470812914057744,-0.06572175525819762,0.207526496887821
60,0.7330406584393345,-0.9516200429998637,-0.1560225642457414,0.3524315687917523,0.34992034350522244
61,0.7140082575793373,-1.3136094412977781,-0.14897393286990634,0.8431353650659208,0.2362448771309353
62,0.6877360687533817,-1.491996608950063,-0.13211122556858793,1.0641158514720481,0.18443432709684515
63,0.6578961365743804,-1.3658189753338932,-0.11082890853914697,0.8377708541160335,0.24257260428377653
64,0.6305797570677025,-1.1862657528546492,-0.0940734914568263,0.5375763879303934,0.3128055606957378
65,0.6068544420106096,-0.9224746758066261,-0.08332196369821843,0.11602252912245242,0.4067576250283002
66,0.588404948494477,-0.4888538700929887,-0.08100151311576938,-0.5566204822149019,0.05961951049018385
67,0.5786278710926173,-0.3746274235482678,-0.09213392276006742,-0.7511867698477763,0.13422890110620478
68,0.5711353226216519,-0.6936614651872126,-0.10715765815702294,-0.3017144665350226,0.1617833702317133
69,0.5572620933179077,-0.9151177548091096,-0.11319194748772339,-0.0028794987596764687,0.2625386263745696
70,0.5389597382217255,-1.1931021873826724,-0.11324953746291692,0.37822134640885874,0.4886495670504406
71,0.515097694474072,-1.596509863989427,-0.10568511053473975,0.9462323525493742,0.13228472838205418
72,0.48316749719428354,-1.6780963399312971,-0.08676046348375227,1.0369156383271738,0.40182722282275346
73,0.44960557039565757,-1.4367372243084564,-0.0660221507172088,0.6507631239053768,0.2788939419946711
74,0.42087082590948843,-1.242526780114808,-0.053006888239101255,0.34068572461029367,0.462382249606462
75,0.39602029030719227,-0.8742192322950686,-0.04619317374689538,-0.22657637354904492,0.3556649352489315
76,0.3785359056612909,-0.4813230414245963,-0.050724701217876283,-0.8288679612871543,0.15483187574105273
77,0.36890944483279897,-0.771664900434536,-0.06730206044361937,-0.408822006604251,0.20262683162848524
78,0.3534761468241083,-1.0208014973935515,-0.07547850057570439,-0.05573502402944902,0.19970634740768542
79,0.33306011687623727,-1.2100386551340558,-0.07659320105629337,0.20514291762844727,0.28960681556548346
80,0.30885934377355617,-1.4441549356834422,-0.07249034270372443,0.5327913661976122,0.25699664143161494
81,0.27997624505988733,-1.6196419916113716,-0.06183451537977218,0.7740371340192473,0.10246094299887362
82,0.2475834052276599,-1.555724498543261,-0.04635377269938723,0.660176362848836,0.25428389330845286
83,0.21646891525679468,-1.3925083409200325,-0.03315024544241051,0.4019919734983663,0.3963719357657007
84,0.18861874843839402,-1.1106668738006586,-0.025110405972443187,-0.03028234074978864,0.10482879402513257
85,0.16640541096238085,-1.0183435163086128,-0.02571605278743896,-0.17610540319159235,0.10356613722972105
86,0.14603854063620858,-1.1164174413068109,-0.029238160851270806,-0.03660284259163968,0.013866658939233091
87,0.12371019181007237,-1.103899474506545,-0.0299702177031036,-0.06396656203365379,0.19531793663432168
88,0.10163220231994147,-1.2756245584752097,-0.031249548943776677,0.18469546317857483,0.09922941335972037
89,0.07611971115043728,-1.3515664549875255,-0.02755563968020518,0.28936682040664147,0.06748015316548205
90,0.049088382050686774,-1.3019883081842907,-0.02176830327207235,0.20692749956406598,0.13909583217670043
91,0.02304861588700096,-1.4066594941036268,-0.01762975328079103,0.35749770463850805,0.14503097640533893
92,-0.005084573995071576,-1.3046473542831483,-0.01047979918802087,0.19932039497450868,0.11006234217652905
93,-0.03117752108073454,-1.3873764938905384,-0.006493391288530696,0.3203262855135199,0.21187716051355307
94,-0.058925050958545305,-1.2367112213604539,-8.686557826029836e-05,0.0924240975810687,0.3294805709467761
95,-0.08365927538575438,-1.4975147049247386,0.0017616163733610757,0.4836037829715746,0.28109805610979594
96,-0.11360956948424915,-1.3116800221473268,0.011433692032792568,0.2053701062757372,0.002187729011350183
97,-0.1398431699271957,-1.3134823615804179,0.015541094158307312,0.2114348709302542,0.061171324277546305
98,-0.16611281715880405,-1.2679345195915925,0.019769791576912395,0.14769025626833882,0.18105042239090774
99,-0.1914715075506359,-1.4082637797926512,0.02272359670227917,0.36395495281536744,0.4217896282170144
100,-0.21963678314648893,-1.1129203019815423,0.03000269575858652,-0.07226572824612748,0.33429521437621734
101,-0.2418951891861198,-1.4055192084654797,0.02855738119366397,0.3752545757949906,0.2690494571614064
102,-0.2700055733554294,-1.2168881620307523,0.03606247270956378,0.10081810210943576,0.08254828961434708
103,-0.29434333659604445,-1.2838292114866623,0.0380788347517525,0.21176445970526758,0.042460108288368735
104,-0.3200199208257777,-1.2518666032770749,0.04231412394585785,0.17504777458757648,0.16669870301333567
105,-0.34505725289131917,-1.1217460121943053,0.04581507943760938,-0.007521763478557347,0.2568673071139091
106,-0.36749217313520527,-1.3457035159518689,0.04566464416803823,0.3415269067861634,0.41634168733026133
107,-0.39440624345424263,-1.041040526839235,0.0524951823037615,-0.10157044361660772,0.28041353909451544
108,-0.41522705399102733,-1.3033690572464225,0.05046377343142935,0.30680678982734444,0.4456346714519614
109,-0.4412944351359558,-0.9669764952008848,0.05659990922797624,-0.18230964534446803,0.32918316215072796
110,-0.4606339650399735,-1.2970116739269377,0.05295371632108688,0.3285818613594439,0.4232412826466346
111,-0.48657419851851225,-0.975765867247483,0.059525353548275754,-0.13705028569741184,0.2635892641667387
112,-0.506089515863462,-1.2384264383782932,0.056784347834327516,0.2737328905105609,0.29444631947579153
113,-0.5308580446310278,-1.0049805764111321,0.062259005644538734,-0.05918587325154345,0.3263820976214828
114,-0.5509576561592504,-1.3217803900065597,0.061075288179507865,0.4333854887799326,0.6130865157108011
115,-0.5773932639593816,-0.8634156862533497,0.06974299795510652,-0.2349346510501002,0.4463006684403595
116,-0.5946615776844486,-1.3623783792931523,0.06504430493410451,0.5321777010920465,0.7482779682053026
117,-0.6219091452703116,-0.8179493856686599,0.07568785895594544,-0.26362934201221133,0.4279166797256996
118,-0.6382681329836848,-1.3218626087463092,0.07041527211570121,0.5123074590982625,0.6029830264209954
119,-0.664705385158611,-0.8700216147795092,0.08066142129766646,-0.14308946369590392,0.32830278809469754
120,-0.6821058174542012,-1.2364209929278607,0.07779963202374839,0.4284114049512707,0.6605987851997424
121,-0.7068342373127584,-0.7081877025403609,0.0863678601227738,-0.3386917544178636,0.40903231701631027
122,-0.7209979913635656,-1.2606501819859504,0.07959402503441652,0.5122736978318483,0.6837835858997278
123,-0.7462109950032846,-0.7229173674819881,0.08983949899105349,-0.26839594205993833,0.3050254916527223
124,-0.7606693423529244,-1.1287931830684497,0.08447158014985473,0.36433982113422714,0.5578517426788202
125,-0.7832452060142934,-0.6409430340033069,0.09175837657253927,-0.34002106182506464,0.3938029287335112
126,-0.7960640666943595,-1.2272469370212895,0.08495795533603798,0.5626741793160073,0.6483259207383092
127,-0.8206090054347852,-0.7023944340407627,0.09621143892235812,-0.19681744986923033,0.3102314171892852
128,-0.8346568941156005,-1.12898285109865,0.0922750899249735,0.4683484217644335,0.6409395987702612
129,-0.8572365511375735,-0.5661674511654878,0.10164205836026217,-0.34519268391824065,0.30716150955695837
130,-0.8685599001608832,-1.0823035903653175,0.09473820468189736,0.45484711109710607,0.6370383682475615
131,-0.8902059719681896,-0.4986513699500751,0.10383514690383949,-0.3888939190156775,0.3069561130968524
132,-0.9001789993671911,-1.0797548227172626,0.09605726852352595,0.5085392078922765,0.6340545816195218
133,-0.9217740958215364,-0.4961267378578764,0.10622805268137148,-0.3346697449541364,0.2387205072737385
134,-0.9316966305786939,-0.9527902404483081,0.09953465778228875,0.3776366053816991,0.5401945783767589
135,-0.9507524353876601,-0.3913749137944855,0.10708738988992272,-0.4311034146672028,0.24652023613992877
136,-0.9585799336635498,-0.9777553089858341,0.09846532159657867,0.4748522188806765,0.5737716390740244
137,-0.9781350398432664,-0.3941835182191382,0.1079623659741922,-0.3673633659198604,0.24647465474410593
138,-0.9860187102076492,-0.9805733460712687,0.100615098655795,0.5387794994359582,0.4667276189748199
139,-1.0056301771290745,-0.5061371897416413,0.11139068864451417,-0.13974463884325994,0.20399548035588524
140,-1.0157529209239073,-0.895736073910276,0.10859579586764896,0.47371304134604597,0.5246051279634925
141,-1.033667642402113,-0.3123930934025949,0.11807005669456988,-0.3642825067598442,0.15945388027013863
142,-1.0399155042701649,-0.7866408045152496,0.110784406559373,0.3767683670611002,0.34484545429823155
143,-1.0556483203604698,-0.35145091739084694,0.118319773900595,-0.23951065240511749,0.16019200206973938
144,-1.0626773387082868,-0.7840950329693921,0.11352956085249266,0.439623100182704,0.45855060813350756
145,-1.0783592393676746,-0.20086972207686649,0.12232202285614674,-0.3962770063323625,0.13125374716350358
146,-1.082376633809212,-0.7873148502112106,0.11439648272949948,0.5126908545876377,0.42172111577166166
147,-1.0981229308134361,-0.2510202102081205,0.12465029982125224,-0.25293389795853216,0.15745894170440944
148,-1.1031433350175985,-0.8374842040767053,0.1195916218620816,0.6564890719816394,0.484286617474997
149,-1.1198930190991327,-0.25490762313945114,0.1327214033017144,-0.176057981690261,0.1345132088730129
150,-1.1249911715619219,-0.75542640337669,0.12920024366790916,0.6070230588187734,0.43685200174534733
151,-1.1400996996294557,-0.17255457898352955,0.14134070484428463,-0.22211826195202278,0.10953198594575225
152,-1.1435507912091263,-0.7590621647153545,0.13689833960524417,0.6902861033460939,0.43680577620960037
153,-1.1587320345034333,-0.17636582822808455,0.15070406167216605,-0.13545836919289966,0.0729914275368725
154,-1.162259351067995,-0.5681411423852192,0.14799489428830806,0.489683276005239,0.26504620391996053
155,-1.1736221739156993,-0.09747787029061067,0.15778855980841283,-0.16524236930769087,0.05146795119970394
156,-1.1755717313215115,-0.5775147305234087,0.154483712422259,0.5920653919277072,0.3305689791293324
157,-1.1871220259319797,0.004714657018659807,0.16632502026081314,-0.22564035090295165,0.0027498154906636808
158,-1.1870277327916066,-0.4930594288884125,0.1618122132427541,0.5593911516981056,0.28079288965214344
159,-1.1968889213693747,0.08896990172548591,0.17300003627671623,-0.2548827604612548,0.04032651742426173
160,-1.195109523334865,-0.41965728242564526,0.16790238106749114,0.5472781121445012,0.2248920642676571
161,-1.2035026689833779,0.1321449217651408,0.17884794331038117,-0.21965390701610532,0.056961514146170664
162,-1.200859770548075,-0.3236348363382723,0.17445486517005906,0.5054121427139493,0.1696444011280317
163,-1.2073324672748404,0.22255290166897834,0.18456310802433806,-0.2504038755731388,0.09969630742575424
164,-1.2028814092414608,-0.23907256441769692,0.17955503051287527,0.4842283355806831,0.1303986602548928
165,-1.2076628605298148,0.34217670999933275,0.18923959722448894,-0.3211227022477403,0.16672036890765665
166,-1.2008193263298281,-0.1553162816043051,0.18281714317953413,0.46709955328442976,0.0658675680749492
167,-1.2039256519619141,0.3189430053531172,0.1921591342452227,-0.17898504840299356,0.024829675267822895
168,-1.197546791854852,0.23857260226234606,0.18857943327716284,-0.004500621926331022,0.12098596849493216
169,-1.192775339809605,0.7298410351977185,0.1884894208386362,-0.6732247869463891,0.4198465261373229
170,-1.1781785191056506,0.14342488987887736,0.17502492509970843,0.24590821331868717,0.09265616122871728
171,-1.1753100213080732,0.725051399760325,0.17994308936608217,-0.5620075818441975,0.34725324197954566
172,-1.1608089933128667,0.23966816164934457,0.16870293772919823,0.20692992432162216,0.14936234443677138
173,-1.1560156300798798,0.8214670889644066,0.17284153621563067,-0.6040153676915058,0.4001499327149954
174,-1.1395862883005916,0.32873295446859924,0.16076122886180055,0.1746360414118744,0.16079555836509166
175,-1.1330116292112196,0.7917040838385975,0.16425394969003804,-0.4638056515117812,0.40190519286646154
176,-1.1171775475344476,0.28178625462122586,0.15497783665980241,0.33885013865955516,0.17819745845454465
177,-1.111541822442023,0.863967234593059,0.1617548394329935,-0.47857381963442724,0.3980758343070554
178,-1.094262477750162,0.40162163704977033,0.15218336304030497,0.25324032966146903,0.19572438557611163
179,-1.0862300450091666,0.8610652611302995,0.15724816963353436,-0.38339063163747733,0.21727508990918645
180,-1.0690087397865606,0.6081206979253759,0.1495803570007848,0.03738562545313617,0.2914446448392043
181,-1.0568463258280532,1.0715316260684755,0.15032806950984753,-0.6061560722515262,0.4127151584374658
182,-1.0354156933066836,0.6845158591640789,0.138204948064817,0.0118506095421117,0.3648529662951698
183,-1.021725376123402,1.2014446865422852,0.13844196025565925,-0.715646141947643,0.7015173153011138
184,-0.9976964823925563,0.6150047818299391,0.12412903741670639,0.19616935666190005,0.3743104653088278
185,-0.9853963867559575,1.1979594578703745,0.1280524245499444,-0.6351343780933918,0.5882023022825528
186,-0.9614371975985501,0.7060129745261352,0.11534973698807656,0.13428822870959467,0.4272452823439532
187,-0.9473169381080273,1.289175963334181,0.11803550156226846,-0.7008055530345151,0.5617292883120899
188,-0.9215334188413437,0.8521967401514277,0.10401939050157816,-0.01527562731254839,0.5109036812967522
189,-0.9044894840383151,1.435621325302056,0.10371387795532719,-0.8551556857831062,0.8119652470535483
190,-0.875777057532274,0.8675897175449322,0.08661076423966507,0.022750523771767672,0.5211719613794565
191,-0.8584252631813754,1.4514000481634057,0.08706577471510042,-0.8242507269265827,0.8362159244837407
192,-0.8293972622181073,0.8735964776234403,0.07058076017656877,0.06473670571869616,0.44875304955738
193,-0.8119253326656385,1.3718841241893196,0.07187549429094268,-0.6601002992499089,0.5172497108207488
194,-0.7844876501818521,0.9949826652253317,0.05867348830594451,-0.0750946058508919,0.47235621392128363
