,X,v,theta,theta_dot,energy
0,0.0,2.0,-0.3490658503988659,0.0,1.093432403189647
1,0.04,1.475715135153934,-0.3490658503988659,0.6384460058906316,0.13864733603172905
2,0.06951430270307868,1.5693809332907158,-0.3362969302810533,0.4058664947591505,0.6705806798316835
3,0.100901921368893,1.1647328842912816,-0.3281796003858703,0.8818197335223664,0.635195833248822
4,0.12419657905471863,1.6801681880583255,-0.310543205715423,0.0551672648505962,0.8698335960010063
5,0.15779994281588514,1.1833719857838432,-0.30943986041841104,0.6748779096265999,0.5254981599967712
6,0.181467382531562,1.6072963172377457,-0.29594230222587903,-0.020337104411531026,0.7148326358322791
7,0.2136133088763169,1.1798236030589442,-0.29634904431410963,0.5072546201776383,0.5120363630374134
8,0.23720978093749578,1.5967824061052345,-0.28620395191055686,-0.1767770633938599,0.7232868533770456
9,0.2691454290596005,1.1591502119078034,-0.28973949317843406,0.36996861010396564,0.5387437983559494
10,0.29232843329775654,1.6075747396560973,-0.28234012097635475,-0.3586281208246316,0.9045405749858153
11,0.3244799280908785,1.0601430588740564,-0.28951268339284736,0.3480974294995063,0.48178389476754285
12,0.3456827892683596,1.4985276978870181,-0.28255073480285725,-0.36604587729131377,0.563989341656998
13,0.37565334322609994,1.1332727665101632,-0.2898716523486835,0.07814255323520036,0.22081394046533415
14,0.3983187985563032,0.9487776152211665,-0.2883088012839795,0.2593059361311826,0.2866893575935076
15,0.4172943508607265,1.2422570709399667,-0.28312268256135587,-0.24633707137104577,0.7144795279936228
16,0.44213949227952587,0.6832658717585763,-0.28804942398877675,0.4766372310621091,0.42244056362415094
17,0.4558048097146974,1.2690161560649287,-0.27851667936753455,-0.4493089440964424,0.5348228918285548
18,0.48118513283599595,0.8574080894681211,-0.2875028582494634,0.06348139261794616,0.061183834784911004
19,0.49833329462535836,0.9302726170163185,-0.2862332303971045,-0.12469549525920365,0.3066752121686039
20,0.5169387469656848,0.6124950122009449,-0.2887271403022886,0.24956918159089064,0.23808432141951624
21,0.5291886472097037,0.986782950899725,-0.28373575667047074,-0.37233470970927923,0.421503706830004
22,0.5489243062276982,0.5692935983636918,-0.29118245086465633,0.14655665833607084,0.03313586202029895
23,0.560310178194972,0.6290271189694738,-0.2882513176979349,-0.023674925788445267,0.16005546808818708
24,0.5728907205743614,0.3857234199344844,-0.28872481621370377,0.24264627023474838,0.11265462226550928
25,0.5806051889730511,0.6652930838400457,-0.2838718908090088,-0.24306083087419544,0.3127495745347951
26,0.5939110506498521,0.2057189530043701,-0.2887331074264927,0.3363689492045165,0.09480475627422967
27,0.5980254297099394,0.6267802475041828,-0.2820057284424024,-0.35279145547933616,0.21220678071731822
28,0.6105610346600231,0.2938448474917184,-0.28906155755198915,0.04506971210061511,0.07267675784278994
29,0.6164379316098575,0.059460338562228654,-0.28816016330997685,0.29825465383270655,0.009278690180136611
30,0.6176271383811021,0.18749910949882823,-0.28219507023332274,0.030563883838907013,0.039525616709084034
31,0.6213771205710786,-0.011744407403380064,-0.2815837925565446,0.2357394103501354,8.91594744421647e-05
32,0.621142232423011,-0.06785268707632089,-0.27686900434954187,0.23489126319077705,0.002370273362340831
33,0.6197851786814846,-0.02417142510104807,-0.27217117908572636,0.09150120623454555,0.004831311353032703
34,0.6193017501794637,-0.2530029745783033,-0.27034115496103545,0.3430793683019765,0.011266460024887378
35,0.6142416906878976,-0.20341040891137802,-0.2634795675949959,0.19287663080215006,0.025385832554638547
36,0.6101734825096701,-0.3262506533089871,-0.2596220349789529,0.2942082657724009,0.04003574586843573
37,0.6036484694434904,-0.4467969931770179,-0.2537378696635049,0.3934936952387901,0.049449426466243826
38,0.59471252957995,-0.5551836890219212,-0.2458679957587291,0.47706704702845804,0.021474306752620954
39,0.5836088557995116,-0.5909210736232168,-0.23632665481815995,0.45750189471058156,0.017276302810365247
40,0.5717904343270472,-0.6171340008704975,-0.22717661692394833,0.42689329323547637,0.007659080717646419
41,0.5594477543096373,-0.6264832998131998,-0.2186387510592388,0.37434000278075447,0.050136551889159414
42,0.5469180883133733,-0.7034164096866584,-0.21115195100362372,0.42322352946655073,0.037089881354781175
43,0.5328497601196401,-0.6478357934106304,-0.20268748041429271,0.28008585935955427,0.010832878035288174
44,0.5198930442514276,-0.6284466361014359,-0.19708576322710164,0.19241455223323034,0.14280073963064016
45,0.5073241115293988,-0.8498332227434207,-0.19323747218243703,0.46049699609393485,0.13768888362854506
46,0.4903274470745304,-1.0087273832976602,-0.18402753226055835,0.6379432391215547,0.06674431480858668
47,0.4701528994085772,-0.9399558357397653,-0.17126866747812725,0.4827285349801845,0.11630544476483146
48,0.4513537826937819,-0.8142915638837693,-0.16161409677852356,0.24688277246489976,0.03453117990238749
49,0.4350679514161065,-0.7701642775605403,-0.15667644132922556,0.13424641265287907,0.006575856469912703
50,0.4196646658648957,-0.7763413595545654,-0.15399151307616799,0.09752389398407679,0.039088014007415094
51,0.4041378386738044,-0.8234876639806643,-0.15204103519648646,0.12231172186669452,0.15581830161298646
52,0.38766808539419106,-1.0068779290187453,-0.14959480075915257,0.3496956917711966,0.13167250416942375
53,0.36753052681381615,-1.1341830010036023,-0.14260088692372863,0.4947035826046415,0.15529867551512916
54,0.3448468667937441,-1.26826321859822,-0.1327068152716358,0.6519997642678019,0.059730807951723655
55,0.3194816024217797,-1.2194614003086746,-0.11966681998627976,0.5405392956684105,0.010006806359968472
56,0.2950923744156062,-1.2259580968150623,-0.10885603407291156,0.515116511916836,0.22964363270211077
57,0.27057321247930494,-1.0383117150406858,-0.09855370383457483,0.2033724430186563,0.11768301900801169
58,0.24980697817849123,-0.9254263949970697,-0.09448625497420171,0.00593821757672755,0.13260681780842842
59,0.23129845027854984,-0.7843329400078647,-0.09436749062266717,-0.2324955864841819,0.13272881045867546
60,0.21561179147839254,-0.9458005008554697,-0.0990174023523508,-0.019074756417439054,0.05738076339800018
61,0.19669578146128314,-1.0034838146998075,-0.09939889748069959,0.03796282621564806,0.2424043223639894
62,0.176626105167287,-1.2379737892332787,-0.09863964095638662,0.3587864447623597,0.27191006215307295
63,0.1518666293826214,-1.4535592726138853,-0.09146391206113944,0.6516396957370627,0.05083642198393299
64,0.1227954439303437,-1.4871000922798667,-0.07843111814639818,0.67488771566533,0.2728622898201756
65,0.09305344208474636,-1.3033257503889615,-0.06493336383309158,0.37703851070547595,0.030727310377490134
66,0.06698692707696713,-1.2791066321556992,-0.05739259361898206,0.3217093969954474,0.06362358692632498
67,0.04140479443385314,-1.3273673400615735,-0.05095840567907311,0.37711710596868386,0.09400324002756212
68,0.014857447632621673,-1.256663354333744,-0.04341606355969943,0.25622351039280195,0.034456312433854476
69,-0.010275819454053207,-1.28304078900456,-0.03829159335184339,0.2829920650201693,0.22859724743019283
70,-0.03593663523414441,-1.458058364160772,-0.032631752051440005,0.5340710095924085,0.38039773035365115
71,-0.06509780251735985,-1.1987819801592408,-0.021950331859591835,0.13577144683658926,0.20478825283901422
72,-0.08907344212054466,-1.365987724970954,-0.01923490292286005,0.38006676519074367,0.04286744013431693
73,-0.11639319661996374,-1.3347067761485993,-0.011633567619045177,0.3274993089642179,0.2989432255792013
74,-0.14308733214293573,-1.113564956372577,-0.005083581439760818,-0.007611165700602607,0.3628938537805237
75,-0.16535863127038727,-1.4313290498993074,-0.005235804753772871,0.46753424916128594,0.39932144091050364
76,-0.19398521226837342,-1.1549716187629444,0.004114880229452849,0.05146446485394923,0.4132623976479466
77,-0.2170846446436323,-1.5048232842919844,0.005144169526531833,0.5774472916981166,0.5582272641341481
78,-0.247181110329472,-1.136560990028532,0.016693115360494167,0.02657353830761311,0.2730386049414509
79,-0.2699123301300426,-1.3714177837813009,0.01722458612664643,0.3837171941488706,0.3043621658882653
80,-0.29734068580566864,-1.152359008348491,0.024898930009623843,0.060241551529006954,0.1483861785579898
81,-0.32038786597263846,-1.2786359119952775,0.026103761040203982,0.2569177244412607,0.29926243754152604
82,-0.345960584212544,-1.0485763594337847,0.031242115529029196,-0.0803804038493624,0.47503117412320517
83,-0.3669321114012197,-1.4894339916434411,0.02963450745204195,0.5897670276636532,0.7286323364396411
84,-0.3967207912340885,-1.0038688780009046,0.04142984800531502,-0.1295495772597247,0.3095826360376806
85,-0.4167981687941066,-1.3035387160134695,0.03883885646012052,0.3317463538396732,0.3030586795792767
86,-0.44286894311437597,-1.0746453516705012,0.04547378353691399,8.098484946716944e-05,0.33738696061999457
87,-0.46436185014778597,-1.3815458135834087,0.04547540323390333,0.4733204733809504,0.6804640840770311
88,-0.49199276641945416,-0.8941440418220319,0.05494181270152234,-0.24366118900053224,0.4039924990912256
89,-0.5098756472558948,-1.3302454382305697,0.0500685889215117,0.42564860891215783,0.5956044891367952
90,-0.5364805560205063,-0.8877773390916188,0.058581561099754854,-0.22250779252065378,0.46963187686104996
91,-0.5542361028023386,-1.3987753292697525,0.05413140524934178,0.5598874666144221,0.6465276017219838
92,-0.5822116093877336,-0.9403542456137902,0.06532915458163022,-0.11083009056703508,0.3743092784159153
93,-0.6010186943000094,-1.3274446687074892,0.06311255277028952,0.4877600499993545,0.6732334407573506
94,-0.6275675876741592,-0.8252991873969237,0.0728677537702766,-0.245415787685632,0.46476421755875036
95,-0.6440735714220976,-1.3682275299317443,0.06795943801656396,0.5882197549890138,0.804937969569436
96,-0.6714381220207325,-0.7840075193263492,0.07972383311634423,-0.26612268232642433,0.3617630247104182
97,-0.6871182724072595,-1.2282878196112028,0.07440137946981575,0.4215950279504129,0.6296829471154278
98,-0.7116840287994836,-0.7214936945941406,0.08283328002882401,-0.31463925570042417,0.40268668622228604
99,-0.7261139026913663,-1.2563656866765687,0.07654049491481553,0.5092429918041589,0.5156862159885011
100,-0.7512412164248977,-0.849675426366429,0.08672535475089871,-0.07652540083951376,0.14812929631274133
101,-0.7682347249522263,-1.0202121735333263,0.08519484673410843,0.203783635112312,0.3986863029830295
102,-0.7886389684228928,-0.6368916290541061,0.08927051943635467,-0.34409479508225127,0.3676293308636816
103,-0.8013768010039749,-1.1875306264057084,0.08238862353470965,0.5047854483684965,0.6988041495329563
104,-0.8251274135320891,-0.603609911331995,0.09248433250207957,-0.3439297536252057,0.2679577094632137
105,-0.8371996117587289,-1.0268602105715314,0.08560573742957546,0.3153841223002841,0.4604244891516556
106,-0.8577368159701596,-0.5846966481778711,0.09191341987558115,-0.320295102612392,0.2906818535277501
107,-0.8694307489337171,-1.058991699419151,0.08550751782333331,0.4151289419809965,0.6241188290237751
108,-0.8906105829221,-0.47514341394480664,0.09381009666295324,-0.4323352287748262,0.2737591312238627
109,-0.9001134512009962,-1.015985718609906,0.08516339208745671,0.40290088430799953,0.42508793016923013
110,-0.9204331655731943,-0.6017497201057512,0.0932214097736167,-0.19119341356874953,0.2259099626983287
111,-0.9324681599753093,-0.9639181651697604,0.08939754150224172,0.37706788337162245,0.4832711487559483
112,-0.9517465232787045,-0.4675220763593709,0.09693889916967417,-0.3383049796160905,0.2477205692815392
113,-0.9610969648058919,-0.9690925936678525,0.09017279957735236,0.4389739844224667,0.5514150873246049
114,-0.980478816679249,-0.40395698828359083,0.09895227926580169,-0.3788104728377164,0.2526586175948133
115,-0.9885579564449207,-0.9903001672272033,0.09137606980904736,0.5254464173170338,0.5799166616586375
116,-1.0083639597894647,-0.406568555557027,0.10188499815538804,-0.319670909439851,0.25261699513494634
117,-1.0164953309006053,-0.992931523585608,0.09549157996659102,0.5852148042476455,0.5728996760374887
118,-1.0363539613723174,-0.4163253842980086,0.10719587605154393,-0.24772212462077248,0.242430006216902
119,-1.0446804690582776,-0.9706058574872513,0.10224143355912849,0.6103815132082562,0.458718909106124
120,-1.0640925862080226,-0.4978155525930324,0.11444906382329362,-0.06509386442434106,0.18773566100097086
121,-1.0740488972598832,-0.8648529286334388,0.11314718653480679,0.5154349961115604,0.5049527541085459
122,-1.091345955832552,-0.28161071879927335,0.123455886457038,-0.3206398258461103,0.17764799099583997
123,-1.0969781702085375,-0.8680661120903096,0.1170430899401158,0.5885518935345361,0.504909471318026
124,-1.1143394924503436,-0.28490595490188086,0.1288141278108065,-0.24587145220516704,0.15660587077885163
125,-1.1200376115483812,-0.8022828654185893,0.12389669876670316,0.5615308612825122,0.46618357922378606
126,-1.136083268856753,-0.21928920178896272,0.1351273159923534,-0.26992382001659854,0.13887061467294537
127,-1.1404690528925323,-0.8057810722263287,0.12972883959202142,0.6414011023533087,0.45628339201740065
128,-1.156584674337059,-0.23527663952519173,0.1425568616390876,-0.16913124313347816,0.10908605215210948
129,-1.1612902071275628,-0.6748065454166889,0.13917423677641802,0.5252456104553928,0.39070825446496305
130,-1.1747863380358965,-0.09219404776074991,0.14967914898552587,-0.2994378552709921,0.06210580654930666
131,-1.1766302189911115,-0.6668208180970806,0.14369039188010602,0.5967064630193103,0.384000679001214
132,-1.1899666353530531,-0.08431169012601725,0.15562452114049222,-0.2259527162831242,0.05370400277791104
133,-1.1916528691555734,-0.6401830158598464,0.15110546681482973,0.6433468002329183,0.261833123324232
134,-1.2044565294727703,-0.22507136083117252,0.1639724028194881,0.07203058427726516,0.054222116578539564
135,-1.2089579566893938,0.010617056336431258,0.1654130145050334,-0.22876782443564003,0.00018370991410347667
136,-1.2087456155626652,-0.493347459389185,0.1608376580163206,0.5652705610169487,0.2799395395085209
137,-1.2186125647504489,0.08690767804080957,0.1721430692366596,-0.24679587363184263,0.04395084450037076
138,-1.2168744111896328,-0.4795917427573795,0.16720715176402273,0.6407543854780062,0.26398100423257626
139,-1.2264662460447804,0.0881391109960108,0.18002223947358287,-0.15003488554995115,0.025637331238646498
140,-1.2247034638248602,-0.2208270035183415,0.17702154176258383,0.3585659410217591,0.12287621011017644
141,-1.229120003895227,0.3607552441302283,0.184192860583019,-0.4484015248633271,0.20442099498685753
142,-1.2219048990126224,-0.22571742696058694,0.17522483008575246,0.47027369040970846,0.1228119053790284
143,-1.2264192475518343,0.35593076340339935,0.18463030389394663,-0.3375858675781337,0.16710970808434364
144,-1.2193006322837663,-0.12378722723229835,0.17787858654238395,0.4237347642191207,0.06290707966641514
145,-1.2217763768284122,0.45777976297821826,0.18635328182676636,-0.3828301844991324,0.23762195760614485
146,-1.212620781568848,-0.06956020140846991,0.17869667813678372,0.4489558544215718,0.0285051326399153
147,-1.2140119855970173,0.4885527867639931,0.18767579522521516,-0.32262503621450855,0.2043453099321482
148,-1.2042409298617374,0.06654575997062856,0.18122329450092498,0.3541235201740073,0.042393371193660226
149,-1.2029100146623248,0.5649682490900896,0.18830576490440512,-0.3282784336026944,0.2378853503522528
150,-1.191610649680523,0.14169741074637576,0.18174019623235124,0.3504397514091985,0.0862448756607385
151,-1.1887767014655954,0.6726272325642095,0.1887489912605352,-0.3797009165679973,0.2597370323274938
152,-1.1753241568143113,0.2845278934313745,0.18115497292917526,0.24727226297558735,0.16919248351961386
153,-1.1696335989456839,0.8391297890583121,0.186100418188687,-0.5180488051788069,0.3928699506961524
154,-1.1528510031645176,0.36801598800515056,0.17573944208511086,0.23081823166504944,0.22700511385984865
155,-1.1454906834044145,0.9496212876879615,0.18035580671841184,-0.5767506237921675,0.4025904029992389
156,-1.1264982576506553,0.5229859751291438,0.1688207942425685,0.10555987183387505,0.316629050233161
157,-1.1160385381480724,1.1047764757995977,0.170931991679246,-0.7053215269251053,0.42948493719693176
158,-1.0939430086320805,0.712835117979237,0.1568255611407439,-0.07596768613175231,0.30320223056766504
159,-1.0796863062724957,1.126852542720194,0.15530620741810885,-0.6434546703359378,0.637796851911152
160,-1.057149255418092,0.558976710928746,0.1424371140113901,0.24358352055570853,0.33159981725974874
161,-1.045969721199517,1.1237688804705137,0.14730878442250425,-0.5532901814058405,0.2734132945115573
162,-1.0234943435901067,0.8793716403686425,0.13624298079438743,-0.14751235655735612,0.464598975765341
163,-1.0059069107827339,1.3961159295887322,0.13329273366324032,-0.8755143655505089,0.7282784449666897
164,-0.9779845921909592,0.8712683014133947,0.11578244635223015,-0.05615415731626283,0.4043597626358628
165,-0.9605592261626913,1.323288217084031,0.11465936320590489,-0.6956803796417526,0.5245178837931173
166,-0.9340934618210107,0.9259749168407738,0.10074575561306984,-0.06998764033649685,0.495003333886908
167,-0.9155739634841953,1.4474801463200935,0.0993460028063399,-0.8187098239685804,0.8462525963282751
168,-0.8866243605577934,0.8611857528647408,0.0829718063269683,0.08555515729711849,0.3948907542748343
169,-0.8694006455004986,1.3051338101812056,0.08468290947291067,-0.5537103011482526,0.30966706613891215
170,-0.8432979692968744,1.0680559284818385,0.07360870344994562,-0.17450078615366527,0.451199635302426
171,-0.8219368507272377,1.482063872720069,0.07011868772687231,-0.7722096443746712,0.8314146743568619
172,-0.7922955732728363,0.9207522448943937,0.05467449483937889,0.08828682963187684,0.554855454188917
173,-0.7738805283749484,1.5052082532248203,0.05644023143201643,-0.7710208791246874,0.7300872791823596
174,-0.7437763633104519,1.0200689584143203,0.041019813849522684,-0.027886067859935637,0.4321508898447168
175,-0.7233749841421655,1.4332601160562919,0.04046209249232397,-0.6350949995364339,0.59284999167254
176,-0.6947097818210397,1.020906906263259,0.027760192501595293,-0.0051788288665469695,0.5917623345010462
177,-0.6742916436957745,1.5861136109724367,0.02765661592426435,-0.8445017853129457,0.9090423425694101
178,-0.6425693714763259,1.0127564723628266,0.010766580218005438,0.023335036460439884,0.46134015112641064
179,-0.6223142420290694,1.4565521106385944,0.011233280947214236,-0.6391545245530957,0.4692872752353986
180,-0.5931831998162975,1.1356690668885934,-0.0015498095438476796,-0.15455781182224204,0.28235559969884444
181,-0.5704698184785256,1.3797619245771249,-0.00464096578029252,-0.5211523024618783,0.6034587769761675
182,-0.5428745799869831,0.9456775428178484,-0.015064011829530086,0.1286028189827636,0.5709135414328478
183,-0.5239610291306261,1.5312494384820758,-0.012491955449874814,-0.7540840179403988,0.811798774904119
184,-0.4933360403609846,1.0023633400752767,-0.02757363580868279,0.035510691999572686,0.506871200660432
185,-0.47328877355947907,1.495280835476671,-0.026863421968691337,-0.7116901147506145,0.6626533215692727
186,-0.44338315684994567,1.0537668418764738,-0.04109722426370363,-0.05755496792632098,0.5069809302104699
187,-0.4223078200124162,1.5248429658745375,-0.04224832362223005,-0.7756516916525755,0.7054306696534236
188,-0.39181096069492544,1.0634729967492873,-0.05776135745528156,-0.0966315901481617,0.3456597330173147
189,-0.3705415007599397,1.3826356617438753,-0.059693989258244796,-0.5915495727531359,0.752681889403693
190,-0.3428887875250622,0.8419955553885649,-0.07152498071330751,0.20042652746030165,0.5106503035491573
191,-0.3260488764172909,1.428161841489361,-0.06751645016410147,-0.6975852375364621,0.493019931237555
192,-0.2974856395875037,1.0847908129523602,-0.08146815491483071,-0.2035369429885891,0.05253763298781099
193,-0.2757898233284565,1.1335819728376542,-0.0855388937746025,-0.3004060963075772,0.11103510994981736
194,-0.2531181838717034,1.0381240613434315,-0.09154701570075405,-0.18286052977886594,0.26979037263152833
