,X,v,theta,theta_dot,energy
0,0.0,2.0,0.17453292519943295,0.0,0.9298918882623695
1,0.04,2.450160049843174,0.17453292519943295,-0.6139290965388022,1.4535894454659621
2,0.08900320099686349,3.031853791848692,0.1622543432686569,-1.4221612928133005,1.719662854624248
3,0.14964027683383732,3.5940974752388954,0.13381111741239088,-2.206955987604717,1.8965049807162875
4,0.22152222633861524,4.121635593083761,0.08967199766029654,-2.951966214641865,0.2272510380022491
5,0.30395493820029046,4.065552883111784,0.030632673367459243,-2.8418518970875004,1.0524227463616236
6,0.38526599586252613,3.804537017439269,-0.02620436457429077,-2.441507181927445,0.7303836014418598
7,0.4613567362113115,3.61185582037653,-0.07503450821283968,-2.16028781329179,1.480863323249393
8,0.5335938526188421,3.201630447793325,-0.11824026447867547,-1.5687206238809863,0.4039853593739147
9,0.5976264615747086,3.0772719104586823,-0.1496146769562952,-1.418166962551579,1.2060718368706593
10,0.6591718997838822,2.6892852310233217,-0.17797801620732678,-0.8865112776303286,0.3581614141812559
11,0.7129576044043486,2.5600705820779175,-0.19570824175993334,-0.7478007073381316,0.0640548943278661
12,0.764159016045907,2.5873567200650154,-0.21066425590669596,-0.8451202072715355,0.49590799517067147
13,0.8159061504472073,2.4009991111371285,-0.22756666005212667,-0.6332419189910241,0.33619529740522947
14,0.8639261326699499,2.266344708017699,-0.24023149843194716,-0.5027963831389792,0.21185393233053046
15,0.9092530268303038,2.177867509474568,-0.25028742609472676,-0.44384247545192346,0.11305959544705481
16,0.9528103770197952,2.2321227602016545,-0.2591642756037652,-0.5955082018734159,0.7678208914161622
17,0.9974528322238283,1.8976231939629455,-0.2710744396412335,-0.18585923937108167,0.10544864688593032
18,1.0354052961030873,1.9554575832875614,-0.2747916244286551,-0.3481664191935263,0.35810224677215236
19,1.0745144477688384,1.7800517015227986,-0.28175495281252566,-0.17470481361144838,0.12813391300228236
20,1.1101154817992944,1.7137192845561546,-0.2852490490847546,-0.16087381944528575,0.2213970418309245
21,1.1443898674904176,1.5917336043262669,-0.28846652547366036,-0.0680197231353286,0.08774540428600526
22,1.1762245395769428,1.5420563430802587,-0.28982691993636694,-0.08022057422578774,0.1525923288193527
23,1.207065666438548,1.4497742045916118,-0.2914313314208827,-0.031591726411164936,0.25705860686983173
24,1.2360611505303802,1.2815877189682288,-0.292063165949106,0.125577166594533,0.0683426800080749
25,1.2616929049097447,1.3370064429698572,-0.2895516226172153,-0.038681617964313714,0.2640159194469178
26,1.2884330337691419,1.1491561873127127,-0.2903252549765016,0.1474203908818052,0.1477293630625003
27,1.3114161575153962,1.0290817112398947,-0.28737684715886547,0.23583299521917017,0.16108047282763766
28,1.3319977917401942,0.8826263213323442,-0.28266018725448205,0.36317636342348547,0.020029975648905483
29,1.3496503181668411,0.8647841924160873,-0.27539665998601237,0.3068776007941658,0.10673544151540067
30,1.366946002015163,0.7505582022995492,-0.26925910797012903,0.3918130599412016,0.01424225161780727
31,1.3819571660611538,0.7721823163755471,-0.261422846771305,0.28233653067132447,0.136358493550796
32,1.3974008123886648,0.6069931597472423,-0.25577611615787854,0.4457155077062979,0.04237592711207723
33,1.4095406755836095,0.6761078792765742,-0.24686180600375257,0.2710352406589537,0.06746537731550557
34,1.423062833169141,0.5842303007283718,-0.2414411011905735,0.3328311139135887,0.04139663112197027
35,1.4347474391837085,0.5203696008531826,-0.23478447891230173,0.3555476485031962,0.05761061764472111
36,1.4451548312007723,0.41914524567448763,-0.2276735259422378,0.4348242557460575,0.05520973456357695
37,1.453537736114262,0.5446469645018484,-0.21897704082731664,0.18507045704539954,0.14289534671904772
38,1.464430675404299,0.2963771069640628,-0.21527563168640865,0.48471630908185437,0.09622738048163504
39,1.4703582175435803,0.5936207757703644,-0.20558130550477155,-0.013660838256800478,0.25479178076033526
40,1.4822306330589876,0.1785752851435798,-0.20585452226990755,0.5357815971887183,0.040435185199870265
41,1.4858021387618592,0.37565154260392,-0.19513889032613319,0.18631392160394739,0.12531879281279265
42,1.4933151696139375,0.06081699721857259,-0.19141261189405423,0.5925953327296132,0.025266077213823176
43,1.494531509558309,0.34506464783166524,-0.17956070523946197,0.11807861087877453,0.033686264700377104
44,1.5014328025149422,0.25398887174379203,-0.17719913302188647,0.19998821045248183,0.03889328081804254
45,1.506512579949818,0.11248298065119391,-0.17319936881283685,0.35709900522226645,0.010428945737697275
46,1.508762239562842,0.19391000918304013,-0.1660573887083915,0.1861194649082114,0.04496356805180638
47,1.5126404397465028,-0.02021730735938823,-0.16233499941022728,0.45429536856034175,5.078251466194475e-05
48,1.5122360935993149,0.2631998146524429,-0.15324909203902043,-0.012758156390790698,0.0974538590457209
49,1.5175000898923638,-0.09604721556940965,-0.15350425516683625,0.4749179152010537,0.029345881976545498
50,1.5155791455809757,0.2887037332997381,-0.14400589686281517,-0.14037549548653033,0.13138293120880665
51,1.5213532202469704,-0.1624875233236398,-0.14681340677254578,0.48721445303668537,0.061692739780692875
52,1.5181034697804976,0.2670702692944512,-0.13706911771181207,-0.19319887736900038,0.1164419491669149
53,1.5234448751663867,-0.1700776728646835,-0.1409330952591921,0.4162005890708996,0.0513431378001572
54,1.520043321709093,0.16240376783320004,-0.13260908347777411,-0.11887422412740628,0.036939976321224324
55,1.523291397065757,-0.06490430751580417,-0.13498656796032224,0.1802214361335992,0.012756663596148033
56,1.5219933109154409,0.15588066270021683,-0.13138213923765027,-0.18750898223608375,0.049345820507478655
57,1.5251109241694452,-0.168390347009723,-0.13513231888237195,0.256190249657228,0.04316574476118651
58,1.5217431172292506,0.10165281309749413,-0.1300085138892274,-0.1847898222324077,0.04242778668579377
59,1.5237761734912005,-0.33949538834013004,-0.13370431033387556,0.43323314655562817,0.16179444395186918
60,1.516986265724398,0.15505758440908596,-0.125039647402763,-0.34116745211457167,0.07558830420600698
61,1.5200874174125798,-0.37054677270555497,-0.13186299644505442,0.4044178386997841,0.13356807912822113
62,1.5126764819584686,0.0007015717470468252,-0.12377463967105874,-0.18627575190996593,0.003611389579916836
63,1.5126905133934094,-0.45468340041593897,-0.12750015470925807,0.4552790555119087,0.17320009891934018
64,1.5035968453850908,-0.06414760409858622,-0.11839457359901989,-0.16315315532833008,0.033528454738363744
65,1.502313893303119,-0.519430003879563,-0.12165763670558649,0.4802629260264525,0.29148675423036174
66,1.4919252932255278,0.052980374293136845,-0.11205237818505744,-0.4076856507215767,0.01757513483558894
67,1.4929849007113905,-0.4409267106609568,-0.12020609119948897,0.2956543117180228,0.10900333679555291
68,1.4841663664981712,-0.19077983936255433,-0.11429300496512851,-0.11211392743584275,0.06451200936505905
69,1.4803507697109202,-0.5102264070118012,-0.11653528351384536,0.3304006232979563,0.19484778509250278
70,1.470146241570684,-0.12516839583598766,-0.10992727104788623,-0.27745275609933573,0.0657555552015496
71,1.4676428736539644,-0.5890853349970595,-0.11547632616987294,0.3819688366382913,0.21305958282223278
72,1.4558611669540231,-0.22431056084779055,-0.10783694943710712,-0.19542387013002394,0.09461005285486689
73,1.4513749557370672,-0.6183561719028902,-0.11174542683970759,0.3605685129891901,0.1543319680241376
74,1.4390078322990094,-0.3669231681047431,-0.10453405657992379,-0.04701352649278712,0.04797989000294006
75,1.4316693689369147,-0.4921741232387951,-0.10547432710977953,0.10916027167954356,0.007146227513032325
76,1.4218258864721387,-0.4763776502295869,-0.10329112167618866,0.05464525156421956,0.005911620785582777
77,1.412298333467547,-0.46274774628165694,-0.10219821664490426,0.003995742711149462,0.06033669733924639
78,1.4030433785419139,-0.5884539018128216,-0.10211830179068128,0.1615771315529658,0.024638412420180996
79,1.3912743005056574,-0.5456725054298799,-0.09888675915962196,0.06776871674989773,0.013371661350844005
80,1.3803608503970597,-0.5202398244947234,-0.097531384824624,0.0007807165768891206,0.11571374391413537
81,1.3699560539071651,-0.735714049108535,-0.09751577049308623,0.2938272298359047,0.13457945134961719
82,1.3552417729249944,-0.5527128874842181,-0.09163922589636814,-0.007994603305862824,0.08958656315108834
83,1.34418751517531,-0.7093384362175367,-0.0917991179624854,0.1990536939135003,0.0644821747149094
84,1.3300007464509593,-0.6182601699602296,-0.0878180440842154,0.036060482805180843,0.060134084840654134
85,1.3176355430517548,-0.7120968853102857,-0.08709683442811178,0.15048782003261602,0.04807873018560633
86,1.303393605345549,-0.6443866255217725,-0.08408707802745946,0.02373331013695887,0.036414229398940325
87,1.2905058728351135,-0.6983822908329933,-0.08361241182472029,0.0797481606527018,0.04267123275593826
88,1.2765382270184538,-0.6373006349145445,-0.08201744861166625,-0.03610765850814229,0.02985509766427893
89,1.263792214320163,-0.6816945391719349,-0.0827396017818291,0.006173244955781643,0.030667682894294033
90,1.2501583235367242,-0.7244001848947821,-0.08261613688271346,0.04571487379873079,0.02132865452635238
91,1.2356703198388286,-0.7520145629761706,-0.08170183940673885,0.06273363833875724,0.07195750235881229
92,1.2206300285793052,-0.8445099400404941,-0.08044716663996371,0.17702026695460665,0.022443855739626265
93,1.2037398297784954,-0.8695284404350093,-0.07690676130087157,0.19080068378145784,0.025989017656971203
94,1.1863492609697952,-0.8389931661529735,-0.07309074762524241,0.12254485424031027,0.04575505973722747
95,1.1695693976467358,-0.7844108189000533,-0.0706398505404362,0.01942037882679165,0.051845992122403414
96,1.1538811812687348,-0.71886918099983,-0.07025144296390037,-0.09939773924967667,0.06879612988559174
97,1.1395037976487383,-0.8106172411022687,-0.0722393977488939,0.017247950133150905,0.06070774933025131
98,1.1232914528266928,-0.8826920864194757,-0.07189443874623089,0.1038583316095244,0.05763209240324841
99,1.1056376110983033,-0.8176494286922917,-0.0698172721140404,-0.014572379569026447,0.061349916291511826
100,1.0892846225244575,-0.7435349054237532,-0.07010871970542093,-0.14598293012019892,0.03695604573380983
101,1.0744139244159825,-0.79058036541606,-0.07302837830782491,-0.0961831809496008,0.041450813259998734
102,1.0586023171076613,-0.8403895206270826,-0.07495204192681693,-0.043119853393456226,0.15265348956822056
103,1.0417945266951196,-1.0160512202659815,-0.07581443899468605,0.19761764326039752,0.18201970588125352
104,1.0214735022898,-1.1912269293258533,-0.0718620861294781,0.43735830990886226,0.050266740618225905
105,0.9976489637032829,-1.232063188416328,-0.06311491993130086,0.4773453291233288,0.19645911928342258
106,0.9730076999349564,-1.0728706540451411,-0.053568013348834286,0.2204885070412856,0.22875518157425162
107,0.9515502868540535,-0.8621742969671014,-0.04915824320800857,-0.11084415199880943,0.19653514024057736
108,0.9343068009147115,-0.6404075564005929,-0.051375126247984765,-0.4575391171907769,0.035000793302996
109,0.9214986497866997,-0.5880463221096484,-0.060525908591800306,-0.5510749832095947,0.20769362957626375
110,0.9097377233445068,-0.9176395369437119,-0.0715474082559922,-0.07537420917684085,0.1729937891137916
111,0.8913849326056326,-1.099789233149337,-0.07305489243952902,0.1761343146586578,0.32537086779026697
112,0.8693891479426458,-1.3893782761833373,-0.06953220614635586,0.5879001997442614,0.2794873488620662
113,0.841601582418979,-1.588431796890951,-0.057774202151470624,0.8653329940883128,0.35737839376463204
114,0.80983294648116,-1.3626352608091756,-0.040467542269704365,0.5102271226621267,0.339942275805859
115,0.7825802412649765,-1.1144945722971633,-0.03026299981646183,0.12642660835166625,0.40086985456800633
116,0.7602903498190332,-0.7613522232455121,-0.027734467649428506,-0.4119403288034657,0.22493710804908149
117,0.745063305354123,-0.4796521426701066,-0.03597327422549782,-0.8424808353538222,0.14296177040717212
118,0.7354702625007209,-0.7484402555283003,-0.052822890932574265,-0.45013337392570807,0.11019643478332398
119,0.7205014573901549,-0.8874936000575467,-0.06182555841108843,-0.25736699434235244,0.1305076828070012
120,0.702751585389004,-1.02817656046771,-0.06697289829793548,-0.06491087176029908,0.2592921246447479
121,0.6821880541796498,-1.2724722424765431,-0.06827111573314147,0.2810358252677262,0.45797876529008985
122,0.656738609330119,-1.6260683212961582,-0.06265039922778695,0.7901382350852735,0.3464347637672506
123,0.6242172429041958,-1.8376911826890234,-0.04684763452608148,1.0885425843310834,0.8013018588534495
124,0.5874634192504153,-1.3999797788000492,-0.025076782839459813,0.4189276638399526,0.2043190767404259
125,0.5594638236744144,-1.2552836057882741,-0.01669822956266076,0.19457984287092564,0.4822544166160278
126,0.5343581515586489,-0.8775837813349501,-0.012806632705242248,-0.3767999612177023,0.3448631450134819
127,0.5168064759319498,-0.5013601619995252,-0.020342631929596296,-0.9448541596671929,0.12174456197286897
128,0.5067792726919593,-0.7193006716497465,-0.03923971512294015,-0.6239913557045492,0.2555154792183934
129,0.4923932592589644,-1.0521454614795083,-0.05171954223703114,-0.13664201219063193,0.16301059625757272
130,0.4713503500293742,-1.2016437529909343,-0.054452382480843775,0.07210680354115132,0.34310400983046724
131,0.44731747496955554,-1.4801298463237915,-0.05301024641002075,0.4732157098130273,0.3538880031475523
132,0.4177148780430797,-1.7160308964301922,-0.043545932213760206,0.8109925104038316,0.20141550712854855
133,0.38339426011447586,-1.5984290414464877,-0.027326082005683573,0.6219584948976342,0.08087921727719634
134,0.35142567928554613,-1.5477967371874217,-0.014886912107730889,0.5380055243488521,0.2687850419569972
135,0.3204697445417977,-1.3754495989025832,-0.004126801620753847,0.2751368725930743,0.5265510117311976
136,0.29296075256374604,-0.998480235744374,0.0013759358311076384,-0.2915256334036018,0.1751136305979989
137,0.2729911478488586,-0.8296382910840735,-0.004454576836964398,-0.5443837856487831,0.044909337544866715
138,0.25639838202717713,-0.8808571364846918,-0.01534225254994006,-0.468865921066845,0.27326073947510326
139,0.2387812392974833,-1.1761421370294132,-0.024719570971276958,-0.03050099370514503,0.23770671836723295
140,0.21525839655689502,-1.372724616265338,-0.02532959084537986,0.25701582364374054,0.13162772462269495
141,0.18780390423158827,-1.4667107040889913,-0.020189274372505048,0.3905036290984736,0.03748011351648377
142,0.15846969014980844,-1.4411890474947404,-0.012379201790535576,0.3462937026039163,0.17699733878841795
143,0.12964590919991364,-1.3198733319627627,-0.005453327738457249,0.1606946799931176,0.08429650657500865
144,0.10324844256065839,-1.3824512538540983,-0.0022394341385948975,0.25295689668160326,0.0823747716626113
145,0.07559941748357643,-1.3237990404460007,0.0028197037950371674,0.16432040409144066,0.07080755547053696
146,0.04912343667465642,-1.2713597827692826,0.006106111876865981,0.08649082209114577,0.16646219695760275
147,0.02369624101927077,-1.399582108784387,0.007835928318688897,0.28061591132240926,0.2665399783078941
148,-0.00429540115641697,-1.2121883552643125,0.013448246545137082,0.0018376500795356798,0.07486152937875902
149,-0.028539168261703222,-1.2726356145684457,0.013484999546727796,0.09645400531048025,0.09147457553008762
150,-0.053991880553072136,-1.3431952506643003,0.015414079652937401,0.20624830611194223,0.05792452965758067
151,-0.08085578556635814,-1.3010480864730916,0.019539045775176248,0.14756663007458992,0.05007964682595706
152,-0.10687674729581997,-1.3390742689803314,0.022490378376668046,0.21033913006625687,0.2105683769706487
153,-0.1336582326754266,-1.184884673522757,0.026697160977993184,-0.01427515795094822,0.2998133371806478
154,-0.15735592614588173,-1.4319795733688183,0.02641165781897422,0.36408314712894463,0.39091974554017794
155,-0.1859955176132581,-1.1629217487532828,0.03369332076155311,-0.031598707185232555,0.2685750211564408
156,-0.20925395258832377,-1.3884236446842333,0.03306134661784846,0.31636611797824993,0.27119647500143096
157,-0.23702242548200844,-1.1963537119788015,0.03938866897741346,0.03813692673911978,0.05459096131532587
158,-0.2609494997215845,-1.2414955556180016,0.040151407512195855,0.11737444643032056,0.06977824745782849
159,-0.28577941083394454,-1.2971342641805355,0.042498896440802264,0.21256658777562268,0.17897119454405627
160,-0.31172209611755525,-1.1621407215563169,0.04675022819631472,0.02275002555593117,0.09221992026787737
161,-0.3349649105486816,-1.2402846080004686,0.04720522870743334,0.15357734702505696,0.04924812757521037
162,-0.359770602708691,-1.202008085491772,0.05027677564793448,0.11009970458380189,0.10345249369584046
163,-0.3838107644185264,-1.2870294076076867,0.05247876973961052,0.2522456825050182,0.4207828599472129
164,-0.40955135257068015,-0.9660123199215265,0.05752368338971089,-0.21319535784480542,0.3911021798072753
165,-0.4288715989691107,-1.3578089181150617,0.053259776232814776,0.3904301115078877,0.5755215348614293
166,-0.4560277773314119,-0.9396603599253909,0.06106837846297253,-0.2202523722158029,0.4219892780392178
167,-0.4748209845299197,-1.3739355308814767,0.05666333101865647,0.44788903544658504,0.41172975185480426
168,-0.5022996951475492,-1.078053096439954,0.06562111172758817,0.021427798947790455,0.09189019447738322
169,-0.5238607570763483,-1.1621982418336794,0.06604966770654397,0.16665262332058967,0.09016270640053652
170,-0.5471047219130218,-1.086982233681416,0.06938272017295576,0.07347910857222006,0.12400662842724283
171,-0.5688443665866502,-0.9763695459938357,0.07085230234440015,-0.07165856181190267,0.17092607627325562
172,-0.5883717575065269,-1.147545722334497,0.0694191311081621,0.20527464054847588,0.24889427683168144
173,-0.6113226719532169,-0.9352771711841764,0.07352462391913162,-0.09196846366772482,0.31912720737451167
174,-0.6300282153769005,-1.2676077596394388,0.07168525464577712,0.4267773927780174,0.4834463061476518
175,-0.6553803705696892,-0.8909125209832558,0.08022080250133747,-0.11575685339334163,0.31312310771654944
176,-0.6731986209893543,-1.2327805090186674,0.07790566543347063,0.41895560404316257,0.7179178810193603
177,-0.6978542311697277,-0.6570985445811441,0.08628477751433389,-0.41906707707377255,0.38308668092945414
178,-0.7109962020613505,-1.2108208780850083,0.07790343597285844,0.4337627267198827,0.6426618377652997
179,-0.7352126196230506,-0.6857900400976525,0.0865786905072561,-0.32851450063724275,0.4096052438842727
180,-0.7489284204250036,-1.2570357821259477,0.08000840049451124,0.5505669770423628,0.6667630157992366
181,-0.7740691360675226,-0.7304406940433681,0.0910197400353585,-0.2133014342812225,0.3297385315714009
182,-0.7886779499483899,-1.1661384136801518,0.08675371134973404,0.46426269977619394,0.6730780393614222
183,-0.8120007182219929,-0.5942307660907646,0.09603896534525792,-0.3648989647426343,0.2998294032366159
184,-0.8238853335438082,-1.0742135224452567,0.08874098605040524,0.3799494574961024,0.6016070122994344
185,-0.8453696039927133,-0.5205116465179757,0.09633997520032729,-0.4212795951572127,0.30556188649002397
186,-0.8557798369230728,-1.0739776588687966,0.08791438329718304,0.43334986029856204,0.6326182502928004
187,-0.8772593901004487,-0.49017936037641063,0.09658138050315428,-0.4131521137270775,0.2942270351103332
188,-0.8870629773079769,-1.0552401443048374,0.08831833822861272,0.45883978650604995,0.6206842866041189
189,-0.9081677801940736,-0.471448540171036,0.09749513395873372,-0.3875027529752747,0.28212571422620436
190,-0.9175967509974944,-1.035322238637235,0.08974507889922823,0.48290931753264443,0.6080819953208002
191,-0.9383031957702391,-0.45155927665119144,0.09940326524988112,-0.362861543841546,0.25080761680140556
192,-0.947334381303263,-0.9754531387516061,0.0921460343730502,0.4482764508340461,0.5731032347658034
193,-0.9668434440782951,-0.39174491029774483,0.10111156338973112,-0.3965187560907273,0.245810077167966
