,X,v,theta,theta_dot,energy
0,0.0,2.0,0.3490658503988659,0.0,1.1945009759227794
1,0.04,2.57316819592355,0.3490658503988659,-0.7073489641300513,1.525726926434332
2,0.09146336391847101,3.1491616164089407,0.3349188711162649,-1.4186801922693393,1.8527799899378388
3,0.15444659624664983,3.7261595384999047,0.3065452672708781,-2.139451844433739,2.179707471155154
4,0.22896978701664794,4.304890763768158,0.2637562303822033,-2.8783601248020356,2.5031076650666018
5,0.31506760229201114,4.885053027032656,0.20618902788616258,-3.6418599737548116,0.06783281604293005
6,0.4127686628326643,4.870856656842384,0.13335182841106635,-3.560825517428965,0.461260209905824
7,0.510185795969512,4.775187821041174,0.06213531806248705,-3.3795069680915617,1.8758482655061
8,0.6056895523903354,4.379120668445762,-0.005454821299344187,-2.7682966905683584,0.8909063957575334
9,0.6932719657592507,4.174808564121723,-0.060820755110711354,-2.4634368030714437,1.4379557113613368
10,0.7767681370416851,3.830150882206058,-0.11008949117214023,-1.9652764742311328,0.754168608844616
11,0.8533711546858063,3.6348273339900867,-0.14939502065676288,-1.7063657777086274,1.0538700282640936
12,0.926067701365608,3.3480349214057425,-0.18352233621093544,-1.324727835305075,0.5655590657925791
13,0.9930283997937228,3.1829365528406424,-0.21001689291703696,-1.134892232523857,0.9373538368512435
14,1.0566871308505357,2.8945893847389925,-0.2327147375675141,-0.7731671567931315,0.40795085986965657
15,1.1145789185453154,2.7590616726922983,-0.2481780807033767,-0.6431577938938466,0.5431095357351234
16,1.1697601519991614,2.5691814598757547,-0.26104123658125367,-0.43928157515633737,0.04758096911551506
17,1.2211437811966765,2.59080813167299,-0.2698268680843804,-0.5465000488624561,0.8098602774101562
18,1.2729599438301364,2.28818268735122,-0.2807568690616295,-0.18735668359224406,0.10782728259205732
19,1.3187235975771607,2.337851458736626,-0.28450400273347437,-0.3404051348759227,0.15326837686267494
20,1.3654806267518933,2.277661284846641,-0.29131210543099284,-0.3362695919197878,0.36283799050513543
21,1.4110338524488262,2.1260681329009907,-0.2980374972693886,-0.20289981473635807,0.05180694016001522
22,1.453555215106846,2.1063343968921684,-0.30209549356411575,-0.2609357327099202,0.3830365107997255
23,1.4956819030446895,1.9331375107192743,-0.3073142082183142,-0.10037650940108733,0.32715389122626093
24,1.534344653259075,1.7728635582340557,-0.3093217384063359,0.0398361047726552,0.20547085036958304
25,1.5698019244237562,1.6647933489298439,-0.3085250163108828,0.1047506280348281,0.2036624200127421
26,1.603097791402353,1.550682469156421,-0.30643000375018625,0.1785607335181718,0.1644058305012037
27,1.6341114407854813,1.6570115969167738,-0.30285878907982283,-0.062190313335616976,0.6986141914340402
28,1.6672516727238167,1.251732539485793,-0.30410259534653516,0.4303750044416704,0.3297153641450142
29,1.6922863235135326,1.5073010821703854,-0.29549509525770173,-0.023422567268868655,0.5911915069159941
30,1.7224323451569403,1.1307221054981709,-0.2959635466030791,0.4313466388964773,0.12315393980228177
31,1.7450467872669038,1.2385229610900983,-0.2873366138251496,0.19092735386160334,0.35621325059979186
32,1.7698172464887056,0.9652938882922628,-0.2835180667479175,0.5006489084881193,0.07897823339629491
33,1.789123124254551,1.0466642919966334,-0.27350508857815514,0.30122401106931807,0.3015972206869477
34,1.8100564100944836,0.7742015423252435,-0.2674806083567688,0.6153152790430694,0.23612388815953853
35,1.8255404409409886,1.0637966350823111,-0.2551743027759074,0.11866478449971002,0.3902147079258615
36,1.8468163736426348,0.712813338385025,-0.2528010070859132,0.553882372685256,0.14267977865918535
37,1.8610726404103353,0.9041518065956702,-0.24172335963220806,0.2024626528412392,0.201185896674829
38,1.8791556765422486,0.6933982207112415,-0.23767410657538326,0.43902552321741445,0.056819460584437625
39,1.8930236409564734,0.7740757584404646,-0.22889359611103496,0.2521910301293901,0.23159934549473507
40,1.9085051561252826,0.4905541734695295,-0.22384977550844717,0.5996725730885578,0.14610906625703912
41,1.9183162395946731,0.7682064807661363,-0.211856324046676,0.1283216295940136,0.27303962035991536
42,1.9336803692099958,0.4280516501874535,-0.20928989145479573,0.565325361838797,0.13482679102228387
43,1.9422414022137449,0.7202111774227462,-0.1979833842180198,0.07556601348001635,0.32113730323848616
44,1.9566456257621998,0.29119746755349385,-0.19647206394841948,0.6486879504137525,0.12833970154609448
45,1.9624695751132697,0.6838613449419821,-0.18349830494014444,0.0136317230407903,0.38147820848736547
46,1.9761468020121093,0.14400973181646326,-0.18322567047932864,0.7561678370316526,0.09373410757221672
47,1.9790269966484386,0.6594060531868503,-0.16810231373869558,-0.05755332664456869,0.3940962727360054
48,1.9922151177121756,0.07759704040681992,-0.16925338027158696,0.7536688196753851,0.03586728875049874
49,1.993767058520312,0.3933241254827617,-0.15418000387807926,0.23732216509184545,0.03186792218186371
50,2.001633541029967,0.31866135176407057,-0.14943356057624235,0.30283828211637653,0.023028986444536312
51,2.0080067680652482,0.2532497605822901,-0.1433767949339148,0.3560920655363293,0.0620711808087008
52,2.013071763276894,0.47980945501122074,-0.13625495362318824,-0.02226893548571174,0.19999291147037523
53,2.0226679523771187,0.07478340688815016,-0.13670033233290246,0.5397041301939574,0.0367948718975906
54,2.024163620514882,0.4384061162792376,-0.1259062497290233,-0.040706450431858276,0.1928857467555069
55,2.0329317428404665,0.009643053952327674,-0.12672037873766048,0.5604284711531173,0.018229344110817152
56,2.033124603919513,0.5199544043041874,-0.11551180931459813,-0.23605698087172744,0.305579402986309
57,2.043523692005597,-0.06320897980469053,-0.12023294893203268,0.5989737291819758,0.01892298057993971
58,2.042259512409503,0.448459339966218,-0.10825347434839316,-0.19825131923245498,0.26105944893630484
59,2.0512286992088273,-0.12901201604961066,-0.11221850073304226,0.6311208131679528,0.05179524301275047
60,2.0486484588878353,0.37495526738461116,-0.09959608446968321,-0.15299830063590614,0.19624777083556377
61,2.0561475642355274,-0.14347678237305495,-0.10265605048240134,0.5915632035186799,0.059135529530853034
62,2.0532780285880663,0.3518845376510691,-0.09082478641202774,-0.17769492479891558,0.2063052634524985
63,2.0603157193410877,-0.2318373369366883,-0.09437868490800605,0.667613175339947,0.12044956247397182
64,2.055678972602354,0.351959947956871,-0.08102642140120711,-0.2318917463013176,0.16896726505163692
65,2.0627181715614915,-0.12943066386272634,-0.08566425632723346,0.4640294091652365,0.04511755111338219
66,2.060129558284237,0.2775890970632821,-0.07638366814392873,-0.1694159567045198,0.12862299771083918
67,2.0656813402255025,-0.18603850412507544,-0.07977198727801912,0.5015626995362427,0.09268636761941494
68,2.061960570143001,0.3685498827899896,-0.06974073328729427,-0.351102510747495,0.18285893704212683
69,2.0693315677988005,-0.13618696042730322,-0.07676278350224416,0.38367514864069474,0.04230282985891605
70,2.0666078285902545,0.21216693394384345,-0.06908928052943027,-0.15986303660491663,0.09914961394312
71,2.070851167269131,-0.2587305310492121,-0.0722865412615286,0.5245019272473456,0.12313919831763165
72,2.065676556648147,0.2534274738037195,-0.061796502716581686,-0.26296254213353887,0.09934490661660993
73,2.0707451061242215,-0.1469146641210694,-0.06705575355925246,0.31824779681053883,0.049051338582179346
74,2.0678068128418,0.21514706974865738,-0.060690797623041685,-0.2433238811985221,0.1009408910356017
75,2.0721097542367732,-0.26634070823925166,-0.06555727524701213,0.45974592700802763,0.12797385793205956
76,2.066782940071988,0.24302483043582818,-0.05636235670685158,-0.32192115839114643,0.12128815724930077
77,2.071643436680705,-0.2740951780356183,-0.06280077987467451,0.43596536222082405,0.09521363202916255
78,2.0661615331199923,0.09195061505008317,-0.05408147263025803,-0.13047223203574476,0.03102588829969541
79,2.0680005454209938,-0.25904883756962616,-0.056690917270972925,0.3793649772697446,0.09476583711489214
80,2.0628195686696014,0.12397774868094319,-0.04910361772557803,-0.21091010742235083,0.06415232235579343
81,2.06529912364322,-0.42230292901570304,-0.053321819874025046,0.5930925649912087,0.19657255226666745
82,2.056853065062906,0.06339526323555894,-0.041459968574200874,-0.15008844736194527,0.01985612988448762
83,2.058120970327617,-0.27835220465723665,-0.04446173752143978,0.3499064988700639,0.13014326484773495
84,2.0525539262344723,0.20597319811066572,-0.037463607544038505,-0.38893109042949187,0.10568410950448694
85,2.0566733901966856,-0.3409760809234812,-0.045242229352628345,0.41990542966284256,0.1680416262137668
86,2.049853868578216,0.1688770149872295,-0.03684412075937149,-0.35738832780511925,0.07919511238505265
87,2.0532314088779606,-0.33671295029148607,-0.04399188731547388,0.38965220772947623,0.16023801137629076
88,2.0464971498721307,0.15387895901207033,-0.03619884316088435,-0.3584531378292189,0.07472963460629715
89,2.049574729052372,-0.3754087837923102,-0.043367905917468724,0.42431823074436753,0.17155769992810868
90,2.0420665533765257,0.09510987699792517,-0.03488154130258137,-0.2935423275806596,0.04898598471612491
91,2.043968750916484,-0.4887529512623425,-0.04075238785419456,0.5714660761484418,0.2776759827878717
92,2.0341936918912373,0.09711256967148385,-0.02932306633122573,-0.3185804569832691,0.045898036211224305
93,2.036135943284667,-0.44429154214089783,-0.03569467547089111,0.48455684805994237,0.2432946096440584
94,2.027250112441849,0.11825652842942613,-0.026003538509692267,-0.36921976010025126,0.05298818045454992
95,2.0296152430104377,-0.3907611739628064,-0.03338793371169729,0.3864044870331469,0.1596769718860468
96,2.0218000195311814,0.027096139102536332,-0.025659843971034355,-0.24984638776269263,0.0063109657163321
97,2.0223419423132323,-0.36359094719404506,-0.03065677172628821,0.3284481566070866,0.14334713610603023
98,2.0150701233693513,0.03791900318313057,-0.024087808594146477,-0.2825454546435844,0.011753743278440379
99,2.015828503433014,-0.41892504908900907,-0.029738717687018166,0.39544069906214974,0.24057389602992207
100,2.007450002451234,0.16682462003222476,-0.021829903705775172,-0.49153720363067555,0.08669406016093795
101,2.0107864948518785,-0.4182130090514312,-0.03166064777838869,0.3793926689057998,0.19766140481067315
102,2.00242223467085,0.06313017480145855,-0.02407279440027269,-0.3515669399512429,0.021073372942091984
103,2.0036848381668793,-0.3724960798766338,-0.03110413319929755,0.29460639931904675,0.20615787455749995
104,1.9962349165693465,0.18798513946721873,-0.025212005212916614,-0.5548519178406448,0.08903982855622303
105,1.9999946193586908,-0.3453007274387738,-0.03630904356972951,0.23741111624220257,0.08822219151301867
106,1.9930886048099155,-0.08750855868746837,-0.03156082124488546,-0.15969478374295792,0.03927736537090179
107,1.9913384336361661,-0.4913965125646381,-0.03475471691974462,0.4365581008394768,0.24983804627196124
108,1.9815105033848734,0.025936518922737184,-0.026023554902955083,-0.3491886622664852,0.005151005261565116
109,1.9820292337633283,-0.4726505598208865,-0.03300732814828479,0.39078866665751905,0.2309109616554725
110,1.9725762225669106,0.023010973329298412,-0.02519155481513441,-0.36200105094765606,0.0033769855354814234
111,1.9730364420334965,-0.4785881571510762,-0.03243157583408753,0.3827533820809443,0.20068763574574958
112,1.963464678890475,-0.053629235701399935,-0.024776508192468648,-0.2638830102709025,0.02732651470257753
113,1.962392094176447,-0.45954003350379335,-0.0300541683978867,0.33751276385872236,0.20063030779716096
114,1.9532012935063712,-0.018495406443558737,-0.02330391312071225,-0.3325900134356678,0.013954688096690494
115,1.9528313853775,-0.423242745098351,-0.029955713389425608,0.26751541634125603,0.15710015786056777
116,1.9443665304755329,-0.05000344049198929,-0.024605405062600488,-0.3008980287457294,0.0343643865530535
117,1.9433664616656932,-0.5761474667040754,-0.030623365637515075,0.4808458575173205,0.33184124700942264
118,1.9318435123316116,0.008311916133259545,-0.021006448487168664,-0.4044340358767869,0.005530702423785186
119,1.9320097506542768,-0.5274354386584651,-0.029095129204704404,0.3928342538934207,0.28708554316767065
120,1.9214610418811076,0.0225736102063,-0.02123844412683599,-0.4403829072696683,0.0009783283509532817
121,1.9219125140852336,-0.3495374875800948,-0.030046102272229355,0.11141422444498089,0.02710322898255474
122,1.9149217643336316,-0.27235158031478784,-0.027817817783329736,-0.013144604663291828,0.053108206070470405
123,1.9094747327273358,-0.4617684807749738,-0.028080709876595573,0.2626934369348034,0.21934030284411818
124,1.9002393631118364,0.014317078259699467,-0.022826841137899505,-0.4594080094112766,0.0036998534099053062
125,1.9005257046770303,-0.5358219109667175,-0.03201500132612504,0.35887498177691834,0.27519314595691413
126,1.889809266457696,-0.018615048465654316,-0.02483750169058667,-0.4259485611343333,0.02062985363309418
127,1.889436965488383,-0.5483342068715165,-0.03335647291327334,0.36108362594225785,0.2903524978818446
128,1.8784702813509526,-0.015368547243246655,-0.02613480039442818,-0.447725134383797,0.019182413984839563
129,1.8781629104060877,-0.5390418812807815,-0.03508930308210412,0.32983386270383963,0.22778137932534287
130,1.8673820727804722,-0.11453226567492092,-0.028492625828027324,-0.31685272814036525,0.06116663289917915
131,1.8650914274669739,-0.5769546800114336,-0.03482968039083463,0.3681236576026419,0.3328772712972901
132,1.8535523338667452,0.0031758725640479435,-0.027467207238781793,-0.5117822602563481,0.00899793796958873
133,1.853615851318026,-0.4337080394485868,-0.03770285244390875,0.1352220752705754,0.08431318212168856
134,1.8449416905290543,-0.2408046243126915,-0.034998410938497246,-0.16500942456569068,0.08319065978360662
135,1.8401255980428004,-0.5671439839857357,-0.03829859942981106,0.31391241612621096,0.24645959260051234
136,1.8287827183630856,-0.13174727388469298,-0.032020351107286835,-0.349960769114709,0.06807250365518752
137,1.8261477728853917,-0.5810699901649643,-0.03901956648958101,0.314265441307848,0.24517908619370227
138,1.8145263730820924,-0.1585408196987731,-0.032734257663424055,-0.3305147334499022,0.09574672903456506
139,1.811355556688117,-0.6962586571960253,-0.039344552332422095,0.4660077719995354,0.3665725770904187
140,1.7974303835441965,-0.16600855395010983,-0.030024396892431388,-0.3403161586418108,0.08891735274706755
141,1.7941102124651942,-0.6435862318030003,-0.0368307200652676,0.3669016464178428,0.3331940144606916
142,1.7812384878291343,-0.1245983809459118,-0.029492687136910743,-0.4218779673107656,0.06371495738980783
143,1.778746520210216,-0.5565359604667783,-0.037930246483126054,0.21707704882917983,0.21886382847707636
144,1.7676158010008804,-0.16544568684578687,-0.03358870550654246,-0.3802852336656903,0.10912085611066889
145,1.7643068872639647,-0.7475600943313848,-0.04119441017985626,0.4825206445892925,0.3948492586417502
146,1.7493556853773369,-0.21617904526926834,-0.03154399728807041,-0.32598244909229895,0.10678174986916583
147,1.7450321044719515,-0.6667060248088381,-0.03806364626991639,0.34019943699110605,0.30213323879518955
148,1.7316979839757747,-0.21360130471051858,-0.03125965753009426,-0.35015335495885896,0.11719723956798574
149,1.7274259578815643,-0.7113128428245792,-0.038262724629271445,0.3868603791098862,0.37182403348747656
150,1.7131997010250728,-0.18792745833932722,-0.030525517047073722,-0.4088895727668041,0.09468821086775868
151,1.7094411518582862,-0.6348144701549945,-0.0387033085024098,0.25215555148272234,0.21722818023636445
152,1.6967448624551862,-0.29431987584139896,-0.03366019747275535,-0.26957978794134335,0.13352767154612905
153,1.6908584649383582,-0.7187414655383477,-0.03905179323158222,0.35679774614299314,0.3427838881077341
154,1.6764836356275912,-0.24221533238203075,-0.031915838308722355,-0.36892479008798124,0.14359315171191492
155,1.6716393289799505,-0.7826676783932098,-0.03929433411048198,0.4319592134538132,0.3985532669116974
156,1.6559859754120863,-0.2725896366896644,-0.030655149841405716,-0.3441167991513247,0.13615077335288406
157,1.6505341826782929,-0.7329819881249938,-0.03753748582443221,0.33713606466135476,0.4305999563660459
158,1.635874542915793,-0.14714283196597822,-0.030794764531205117,-0.5520370584052667,0.10333125243982039
159,1.6329316862764736,-0.7320359046346265,-0.04183550569931045,0.3158343553268248,0.38116825251851966
160,1.618290968183781,-0.2133569457952098,-0.035518818592773956,-0.4737993857487345,0.11529648230095105
161,1.6140238292678768,-0.6917217402976854,-0.044994806307748644,0.23285489256068148,0.3088404513458858
162,1.600189394461923,-0.24879179916107225,-0.04033770845653502,-0.4440915979521859,0.15691226737277167
163,1.5952135584787015,-0.817333751914429,-0.04921954041557874,0.39617153574505304,0.42866649855180883
164,1.578866883440413,-0.29353656389748384,-0.04129610970067768,-0.4030374425213392,0.17030833781600235
165,1.5729961521624634,-0.8257089249602648,-0.049356858551104464,0.38240292752606586,0.37073104140481794
166,1.556481973663258,-0.3776454528866548,-0.04170880000058315,-0.3033788268260833,0.16535026797086946
167,1.548929064605525,-0.7891313036672565,-0.047776376537104814,0.3010543219890197,0.29742586007256583
168,1.5331464385321798,-0.4143214792445918,-0.04175529009732442,-0.27455979771484074,0.13621086233040006
169,1.524860008947288,-0.7250552019818611,-0.04724648605162123,0.17886203287456542,0.26066374235705025
170,1.5103589049076507,-0.3697244569499184,-0.043669245394129926,-0.3674246099337895,0.11815353023581487
171,1.5029644157686524,-0.6673802628042946,-0.051017737592805715,0.06579876567025161,0.06402546408912878
172,1.4896168105125664,-0.5726516881662836,-0.04970176227940068,-0.091101925079413,0.05035746307293159
173,1.4781637767492408,-0.6571025878333743,-0.05152380078098894,0.02081169173681821,0.0055846364332214895
174,1.4650217249925734,-0.648063215022252,-0.051107566946252576,-0.007870669912459632,0.01860543229197577
175,1.4520604606921284,-0.6753199583723553,-0.05126498034450177,0.01794197669049317,0.05201001690550442
176,1.4385540615246812,-0.5993729625326915,-0.050906140810691905,-0.11089415607615584,0.10276542808155215
177,1.4265666022740273,-0.764493412388801,-0.05312402393221502,0.12150572164285676,0.1550772620976634
178,1.4112767340262513,-0.564434680754481,-0.050693909499357884,-0.1937701445528724,0.2267829206365976
179,1.3999880404111618,-0.9496118091773016,-0.054569312390415334,0.36835568833867866,0.18655659511078596
180,1.3809958042276158,-0.7537810478160303,-0.047202198623641764,0.059011381181123757,0.018800340720947946
181,1.3659201832712953,-0.7286894942088045,-0.04602197100001929,0.007543678165910582,0.1298574494467006
182,1.3513463933871193,-0.5541153411240267,-0.04587109743670108,-0.26756597018422446,0.15120595204930296
183,1.3402640865646387,-0.8139330550331427,-0.051222416840385566,0.10826927584829438,0.11053747960134118
184,1.3239854254639758,-0.6799268220829587,-0.04905703132341968,-0.10752923960024297,0.077671736852388
185,1.3103868890223167,-0.7898603662881339,-0.05120761611542454,0.042755709628859745,0.0734893282414842
186,1.294589681696554,-0.6981497022829792,-0.05035250192284735,-0.10967842203538358,0.08660243483836172
187,1.2806266876508945,-0.8175704655358692,-0.05254607036355502,0.054428307655788044,0.05329443809821495
188,1.2642752783401772,-0.7530422302083675,-0.05145750421043926,-0.057671886435996855,0.07905306223968929
189,1.2492144337360098,-0.8543491113873782,-0.052610941939159196,0.0789654630493459,0.03486559293786633
190,1.2321274515082623,-0.813622613477941,-0.051031632678172276,0.002499759764237483,0.056928972878404566
191,1.2158549992387035,-0.7446324550496198,-0.050981637482887525,-0.11584754642041245,0.0651063610486458
192,1.2009623501377111,-0.8285907816361467,-0.053298588411295776,-0.005055794265966654,0.04165220326402218
193,1.184390534504988,-0.7788091078838724,-0.05339970429661511,-0.09528463450744878,0.03016723571429134
