,X,v,theta,theta_dot,energy
0,0.0,-2.0,-0.3490658503988659,0.0,1.2
1,-0.04,-2.5758278839721624,-0.3490658503988659,0.7110978979793615,0.8853071362946551
2,-0.09151655767944325,-2.9078719454834383,-0.33484389243927865,1.0785730074085074,0.298409535941182
3,-0.149673996589112,-3.0047724365404926,-0.3132724322911085,1.1192364093012126,0.9616372658213078
4,-0.20976944531992187,-3.3161415311323914,-0.29088770410508424,1.4729556458860327,0.10752092088402525
5,-0.2760922759425697,-3.3448944662783195,-0.2614285911873636,1.4299531592963042,0.22543547080357498
6,-0.3429901652681361,-3.4085339407168602,-0.23282952800143752,1.4461813376047823,0.17434856218407455
7,-0.4111608440824733,-3.45645887779221,-0.20390590124934188,1.4482939388904172,0.06958567555392091
8,-0.48029002163831747,-3.4739921619932015,-0.17494002247153354,1.414515233232293,0.14543838578057014
9,-0.5497698648781815,-3.5133904232437194,-0.14664971780688768,1.4215401921267186,0.0735828064678525
10,-0.6200376733430558,-3.5323877887340687,-0.1182189139643533,1.406769725599554,0.13295652066234362
11,-0.6906854291177372,-3.5682937567560025,-0.09008351945236222,1.4255772973811218,0.01979783510196457
12,-0.7620513042528573,-3.5726973239011746,-0.06157197350473978,1.4057071161627417,0.04437938741325214
13,-0.8335052507308808,-3.5842712090233753,-0.033457831181484946,1.4049443213511765,0.45047464792803843
14,-0.9051906749113483,-3.4590270566865,-0.005358944754461414,1.207348467006831,0.18223290077441706
15,-0.9743712160450783,-3.4067310373618844,0.018788024585675207,1.1273300421896189,0.17462986879512749
16,-1.042505836792316,-3.4577491507326052,0.041334625429467586,1.2093670602519733,0.07426511267947955
17,-1.111660819806968,-3.436992868822981,0.06552196663450705,1.1904081506574178,0.2889046670779506
18,-1.1804006771834277,-3.354550304889476,0.08933012964765541,1.0862593399022393,0.27689130393766015
19,-1.2474916832812173,-3.2740431654920545,0.1110553164457002,0.9922082807286154,0.19733784944324723
20,-1.3129725465910584,-3.3350800902846647,0.13089948206027252,1.1157828489369734,0.20681161045338675
21,-1.3796741483967518,-3.2754286585925176,0.153215139039012,1.0654458270904854,0.3917289895944711
22,-1.4451827215686022,-3.159214296355077,0.1745240555808217,0.938035591765468,0.5012211715136811
23,-1.5083670074957036,-3.0049923598618284,0.19328476741613107,0.7612667935429545,0.2978564660292438
24,-1.5684668546929401,-2.9100370066823467,0.20851010328699016,0.6779586255033522,0.5203676263675193
25,-1.626667594826587,-2.737110360798823,0.2220692757970572,0.4850456724899868,0.4788368760640984
26,-1.6814098020425634,-2.5687129111645843,0.23177018924685694,0.3034053797904658,0.24712997292528258
27,-1.732784060265855,-2.477895209264212,0.23783829684266625,0.23835336433869708,0.24669615575141815
28,-1.7823419644511393,-2.384002524029252,0.2426053641294402,0.17074610337835788,0.41303905009935094
29,-1.8300220149317243,-2.218474705175814,0.24602028619700736,0.0003538615040845905,0.33021235211332567
30,-1.8743915090352405,-2.0772580486849743,0.24602736342708906,-0.13349040508393767,0.2864648311915447
31,-1.91593667000894,-1.9470451948229193,0.2433575553254103,-0.25132361059992625,0.12956105657026762
32,-1.9548775739053983,-1.8860916347234813,0.23833108311341178,-0.26921689623612804,0.2429698906543224
33,-1.992599406599868,-1.7649669756888606,0.2329467451886892,-0.3763603213961787,0.05485901212627195
34,-2.027898746113645,-1.7980677655913233,0.22541953876076565,-0.2601815674808663,0.035971543074124555
35,-2.0638601014254716,-1.7818434307422315,0.22021590741114833,-0.21818886637594104,0.045827811960481454
36,-2.0994969700403163,-1.7600102065680192,0.2158521300836295,-0.18592634970106686,0.11095135278000613
37,-2.1346971741716767,-1.7019827569757404,0.21213360308960816,-0.2079787881207971,0.18010949726530076
38,-2.1687368293111917,-1.6025637445811258,0.20797402732719222,-0.29186386050129187,0.032662794240494564
39,-2.200788104202814,-1.6250982846965039,0.2021367501171664,-0.19808590259309156,0.1343880391494522
40,-2.233290069896744,-1.5478962408026604,0.19817503206530457,-0.2525068670870123,0.06778190378298027
41,-2.2642479947127976,-1.5083512814607225,0.1931248947235643,-0.2527804753647004,0.11159639190360464
42,-2.294415020342012,-1.5824861041767209,0.1880692852162703,-0.08721914263402875,0.07988271447444857
43,-2.3260647424255465,-1.5361102421149186,0.18632490236358973,-0.10058932318186707,0.1701429387753127
44,-2.356786947267845,-1.6461882217442745,0.1843131158999524,0.11613285626993285,0.18536487285318104
45,-2.3897107117027305,-1.5388301205294659,0.18663577302535106,0.011705062462666949,0.0876665694398587
46,-2.42048731411332,-1.596897720678907,0.1868698742746044,0.15184678264783133,0.3387357933108984
47,-2.452425268526898,-1.3921986953820071,0.189906809927561,-0.09523566861788155,0.017326993926496854
48,-2.480269242434538,-1.3827748749092457,0.1880020965552034,-0.05361965471956282,0.14129029403951776
49,-2.507924739932723,-1.2861401625188578,0.18692970346081214,-0.14107001791840168,0.16807853439431636
50,-2.5336475431831005,-1.1621932818263208,0.1841083031024441,-0.2691136744726591,0.055143080548823005
51,-2.556891408819627,-1.119051404632086,0.17872602961299092,-0.27891026227847676,0.11523993832446386
52,-2.5792724369122686,-1.2206719090392024,0.17314782436742138,-0.07664142336820615,0.11101604246093115
53,-2.6036858750930527,-1.1348115735039244,0.17161499590005724,-0.15285468225502447,0.001252400937290374
54,-2.626382106563131,-1.138283685533496,0.16855790225495676,-0.09751551101024421,0.08341414012170006
55,-2.6491477802738013,-1.0695756125704128,0.16660759203475187,-0.14979530129178445,0.028386482754235172
56,-2.6705392925252096,-1.046233320838696,0.16361168600891618,-0.13556757322414764,0.0893302800071442
57,-2.6914639589419833,-0.9658723238073186,0.16090033454443323,-0.20661177181900495,0.0138635849807006
58,-2.7107814054181296,-0.9819735233760776,0.15676809910805312,-0.13567107938058637,0.047241025820983
59,-2.730420875885651,-0.9376159948339179,0.15405467752044139,-0.15549017219129413,0.014300436029258342
60,-2.7491731957823293,-0.9250387521509298,0.1509448740766155,-0.12901947228498178,0.027824548348898744
61,-2.767673970825348,-0.8980501300130096,0.14836448463091587,-0.12483262676647165,0.10881655342113815
62,-2.785634973425608,-0.7828485792755302,0.14586783209558643,-0.2522772646031385,0.02594319366031219
63,-2.8012919450111187,-0.8167187729980581,0.14082228680352366,-0.15927829573721253,0.009198415554301662
64,-2.8176263204710796,-0.8078287902853101,0.1376367208887794,-0.13121621696796096,0.08905814189231832
65,-2.833782896276786,-0.7031458190641707,0.13501239654942018,-0.24641813939698898,0.008375340877211897
66,-2.8478458126580692,-0.7164730961802962,0.1300840337614804,-0.18703598494113935,0.0024676067514992814
67,-2.8621752745816753,-0.7149940939511967,0.1263433140626576,-0.15109880889218724,0.009738713256462136
68,-2.876475156460699,-0.7036341919895928,0.12332133788481386,-0.1309566508378328,0.020185602909887638
69,-2.890547840300491,-0.7331051223183426,0.1207022048680572,-0.05092133414479873,0.0050162318906806546
70,-2.905209942746858,-0.7281696382414539,0.11968377818516122,-0.02287035298394399,0.06935191398703885
71,-2.919773335511687,-0.6371776459582532,0.11922637112548234,-0.12327888009682827,0.029720010735502553
72,-2.932516888430852,-0.5938029041602152,0.11676079352354578,-0.152909546507119,0.05485400912998383
73,-2.9443929465140566,-0.5064578296298895,0.1137026025934034,-0.2487853577098212,0.008548505194516115
74,-2.954522103106654,-0.5241607856462741,0.10872689543920697,-0.18904580771505344,0.02066368739253455
75,-2.9650053188195797,-0.5635141671147211,0.1049459792849059,-0.09846154119938666,0.020796471520259784
76,-2.9762756021618744,-0.5293120275525341,0.10297674846091817,-0.11868497875821293,0.016696452246262056
77,-2.986861842712925,-0.5003340084115964,0.10060304888575392,-0.13170005925085473,0.015652897067839695
78,-2.996868522881157,-0.5319048251100983,0.09796904770073682,-0.05505584792334364,0.03656255502485903
79,-3.007506619383359,-0.4665965161022679,0.09686793074226994,-0.12379172127775488,0.014808467592531169
80,-3.016838549705404,-0.49854959420811706,0.09439209631671484,-0.04765214565291917,0.0706274944934718
81,-3.0268095415895666,-0.3623681852896449,0.09343905340365646,-0.2233048311034585,0.0016995346787214887
82,-3.0340569052953597,-0.35924638831747674,0.08897295678158729,-0.20053597465759565,0.008996266555954311
83,-3.0412418330617093,-0.3366962717400765,0.08496223728843537,-0.2081038036657541,0.030522928764518512
84,-3.0479757584965106,-0.4238937035298226,0.08080016121512029,-0.052830596841344085,0.037579209115150676
85,-3.056453632567107,-0.5110102441018401,0.07974354927829341,0.10114728742852974,0.09657613083039711
86,-3.066673837449144,-0.3261845487325026,0.081766495026864,-0.15179047414677355,0.011679445491195085
87,-3.073197528423794,-0.36154448461223676,0.07873068554392854,-0.07491520598444529,0.017526655199286742
88,-3.0804284181160386,-0.3158343585173551,0.07723238142423963,-0.1201450872091647,0.011742647028353813
89,-3.086745105286386,-0.3525786451544416,0.07482947968005633,-0.04250920231849399,0.011356255094664728
90,-3.0937966781894746,-0.3848872138881993,0.07397929563368645,0.027797372973368803,0.016078627542142006
91,-3.1014944224672387,-0.345070307812083,0.07453524309315383,-0.010034545097234122,0.0015663189081557465
92,-3.1083958286234803,-0.3417140623562184,0.07433455219120914,0.006838141617559027,0.011015912071142817
93,-3.1152301098706046,-0.3113089711552769,0.07447131502356033,-0.016809310427289764,0.033680610720837584
94,-3.12145628929371,-0.2071214351644528,0.07413512881501454,-0.15078311398786576,0.010187422322812523
95,-3.1255987179969993,-0.1617443360492982,0.07111946653525722,-0.19688603491201148,0.011975717624355689
96,-3.128833604717985,-0.09432658923137757,0.06718174583701698,-0.27686551347910027,0.002431452443547149
97,-3.130720136502613,-0.11746793682934849,0.06164443556743498,-0.22249521803136518,0.008888332134041489
98,-3.1330694952391998,-0.0503871734133292,0.057194531206807675,-0.3048132537468372,0.005531377111446548
99,-3.1340772387074662,-0.1352084820905331,0.051098266131870934,-0.16098330953224327,0.004846227955983996
100,-3.136781408349277,-0.1691074632730461,0.04787859994122607,-0.09518485327645755,0.013402443729912152
101,-3.140163557614738,-0.09441100357174265,0.045974902875696916,-0.1930302129544338,0.009475753647565392
102,-3.142051777686173,-0.005481348497280436,0.04211429861660824,-0.3127718827043694,0.003866659855339667
103,-3.1421614046561186,-0.19766786761197014,0.03585886096252085,-0.01236977070985873,0.021654620818037183
104,-3.146114762008358,-0.09161604692809724,0.03561146554832367,-0.1608049911075585,0.009219329998240789
105,-3.14794708294692,-0.0012081762951163394,0.032395365726172506,-0.2858632582009194,0.001432606029714669
106,-3.1479712464728222,-0.10011516732047525,0.026678100562154118,-0.12805804230522652,0.005151624569692317
107,-3.1499735498192316,-0.14793902439253714,0.024116939716049588,-0.048505351899958804,0.001339695419725255
108,-3.1529323303070824,-0.13957990713411722,0.023146832678050414,-0.05395068857881041,0.0060747903299188406
109,-3.1557239284497647,-0.09818579099303976,0.022067818906474204,-0.10922066890741283,0.006650445747851705
110,-3.1576876442696253,-0.03560268540062134,0.01988340552832595,-0.19658505809869853,0.0008831244366157
111,-3.1583996979776376,-0.05523185199715643,0.015951704366351977,-0.1613017922538797,0.0027493654638520403
112,-3.159504335017581,-0.09833308777553582,0.012725668521274384,-0.09196856177190539,0.005763047672796171
113,-3.1614709967730916,-0.1533612798884279,0.010886297285836276,-0.005691711504888869,0.005160295878760843
114,-3.1645382223708602,-0.1862891131771544,0.010772463055738498,0.04689761989770225,0.014162966328211147
115,-3.1682640046344033,-0.11141318210132248,0.011710415453692544,-0.06224271710827056,0.0047508756647017605
116,-3.17049226827643,-0.07100977695801819,0.010465561111527133,-0.1194008859103298,0.0036239740475082468
117,-3.17191246381559,-0.02490511215505039,0.008077543393320537,-0.18547727703682798,0.0014671543776950636
118,-3.172410566058691,-0.06795849298620596,0.004367997852583978,-0.11852454066404335,0.004643388091289902
119,-3.173769735918415,-0.12978493173487204,0.0019975070393031106,-0.024501579963334838,0.0008228993794598899
120,-3.1763654345531127,-0.12368037053063105,0.0015074754400364139,-0.03307113682262639,0.001567950484910903
121,-3.1788390419637254,-0.13592169984970814,0.0008460527035838861,-0.014265966096148181,0.017937142915795845
122,-3.1815574759607195,-0.2640705486508747,0.0005607333816609224,0.17820597777357747,0.010221969711567509
123,-3.186838886933737,-0.2251183758327704,0.004124852937132472,0.11994258333755292,0.007874890397777208
124,-3.1913412544503923,-0.19020259321614263,0.006523704603883531,0.06878205829021064,0.002892048892875325
125,-3.195145306314715,-0.20537822009176385,0.007899345769687743,0.09346296976308388,0.009728101928447355
126,-3.1992528707165504,-0.15830411929890595,0.00976860516494942,0.02517640512183529,0.0064079468650653434
127,-3.2024189531025287,-0.1186655032037926,0.010272133267386126,-0.03140675789584255,0.009622508309030107
128,-3.2047922631666044,-0.04064222223971052,0.009643998109469275,-0.14541555075494952,0.00046755937343253
129,-3.2056051076113987,-0.050433974403208924,0.006735687094370285,-0.12789331403479862,0.0023975052660450366
130,-3.206613787099463,-0.008945798495910255,0.0041778208136743124,-0.18814388914669683,0.0007605721462531218
131,-3.206792703069381,-0.051412164472817726,0.0004149430307403756,-0.12321662034631824,0.0006216535040128175
132,-3.2078209463588374,-0.04078032338341926,-0.002049389376185989,-0.13904238735995442,0.004002964911694678
133,-3.2086365528265057,-0.12366599853986361,-0.004830237123385078,-0.015316655769710044,0.0023425608130533643
134,-3.211109872797303,-0.14197386494913952,-0.0051365702387792785,0.010724739294367583,0.002697576056660737
135,-3.2139493500962857,-0.16050111890771,-0.004922075452891927,0.03700510860133098,0.012929207704406847
136,-3.21715937247444,-0.08100785205444246,-0.004181973280865307,-0.08368043161937282,0.00013413696279897437
137,-3.218779529515529,-0.07940489301585596,-0.005855581913252764,-0.08731434571259973,0.0065646057488818015
138,-3.220367627375846,-0.15613753363810656,-0.007601868827504759,0.02606111073453661,0.002704444969053315
139,-3.223490378048608,-0.13900095692062797,-0.007080646612814026,-0.0018779395332742359,0.005003132801860151
140,-3.2262703971870206,-0.17399335804474397,-0.007118205403479511,0.04852765367617526,0.013391766527013352
141,-3.2297502643479157,-0.24994503431363396,-0.006147652329956006,0.16035954708795705,0.0048771573271652
142,-3.2347491650341884,-0.23024824473605793,-0.002940461388196865,0.12900752262943943,0.017240804552791585
143,-3.2393541299289095,-0.30516808600325274,-0.00036031093560807623,0.24052230429292665,0.022088103185854698
144,-3.2454574916489745,-0.23192438076377758,0.004450135150250457,0.13055082215252856,0.014131809884886557
145,-3.25009597926425,-0.17098060405064758,0.007061151593301028,0.04044439768152275,0.004959718786350514
146,-3.253515591345263,-0.14247438720928174,0.007870039546931483,-0.00023790028079111875,0.011120360433826177
147,-3.256365079089449,-0.21872907057149782,0.00786528154131566,0.11645435025297812,0.002024787184049123
148,-3.260739660500879,-0.20958655501474316,0.010194368546375223,0.10505337003229322,0.02348506632369456
149,-3.264931391601174,-0.0978636079457282,0.012295435947021087,-0.0595252500888243,0.0016478222691776584
150,-3.2668886637600885,-0.08205471720271221,0.0111049309452446,-0.07962202667349343,0.0028388506012825424
151,-3.2685297581041426,-0.11454102772560294,0.00951249041177473,-0.027630782909697366,0.002435610745418277
152,-3.270820578658655,-0.09415711444906283,0.008959874753580784,-0.05540863946437205,0.003385066763061913
153,-3.272703720947636,-0.06012509892010629,0.007851701964293342,-0.10382044578796892,0.0020654682439039626
154,-3.2739062229260383,-0.09131341002202384,0.005775293048533964,-0.054731044520000854,0.0016850585797811442
155,-3.2757324911264787,-0.10892218067190597,0.004680672158133947,-0.026620402318830023,0.0037919326755769434
156,-3.277910934739917,-0.07539839273000282,0.004148264111757347,-0.07552942079626157,0.0052430238373258635
157,-3.279418902594517,-0.14034482908421794,0.0026376756958321154,0.02310898168397843,0.0007296440991409495
158,-3.2822257991762016,-0.14549303644041417,0.003099855329511684,0.031606741610310074,0.011785587537975884
159,-3.28513565990501,-0.06572064022082942,0.0037319901617178853,-0.08713992180632221,0.002424522042515617
160,-3.286450072709427,-0.031828482609990896,0.001989191725591441,-0.13688060163123922,0.0002176821058885006
161,-3.2870866423616265,-0.03743833814094437,-0.0007484203070333433,-0.1278810130013181,0.0007898024098402908
162,-3.2878354091244453,-0.019612140863340198,-0.0033060405670597053,-0.15484033697867056,0.001678132805381862
163,-3.288227651941712,-0.08099767438419236,-0.006402847306633116,-0.06373451405655177,0.011288663018708444
164,-3.289847605429396,-0.21218122652959312,-0.0076775375877641515,0.13115435638405093,0.006448903297460763
165,-3.294091229959988,-0.24258038110755037,-0.005054450460083133,0.17449457048250655,0.009218332995039706
166,-3.298942837582139,-0.2041806532627444,-0.001564559050433002,0.11540971236765679,0.0026159972263972466
167,-3.303026450647394,-0.19132894430051656,0.0007436351969201337,0.09567219234538686,0.008272892387192358
168,-3.3068530295334044,-0.1481739989764684,0.0026570790438278707,0.031158420985355206,0.014350521156805946
169,-3.3098165095129337,-0.24361084869461774,0.0032802474635349748,0.17509437053950197,0.010232875370944979
170,-3.314688726486826,-0.20129329084834743,0.006782134874325014,0.11258276629802423,0.01583155654787532
171,-3.318714592303793,-0.12265828746769043,0.009033790200285498,-0.00337309366479209,0.002967037211057605
172,-3.321167758053147,-0.09921797039122153,0.008966328326989657,-0.03587623638302288,0.005381160292439989
173,-3.3231521174609715,-0.047289506142863494,0.0082488035993292,-0.11112973647646636,0.004927080994897467
174,-3.3240979075838286,-0.13924601910068302,0.006026208869799873,0.029225461011608125,0.006092523026339787
175,-3.3268828279658424,-0.1824299691183822,0.0066107180900320354,0.09577190455103224,0.00034316322557456885
176,-3.3305314273482103,-0.18064467003006993,0.00852615618105268,0.09503755139611572,0.0039176803749468424
177,-3.3341443207488117,-0.20244335855787313,0.010426907208974994,0.1302410552442884,0.0348966667403124
178,-3.3381931879199693,-0.029355311634849418,0.013031728313860763,-0.12631144644514533,0.0010629677911663422
179,-3.3387802941526665,6.082610055514054e-06,0.010505499384957857,-0.16651857843853818,0.0003939868124035751
180,-3.3387801725004653,-0.05096966391546166,0.0071751278161870935,-0.08697061807824057,0.0005060160772165452
181,-3.3397995657787747,-0.06006098756623302,0.005435715454622282,-0.071224514155614,0.002480817761765037
182,-3.3410007855300994,-0.09837532688019818,0.004011225171510003,-0.012155761764160639,0.004213952579533707
183,-3.3429682920677033,-0.05687561408416592,0.0037681099362267896,-0.073225533125406,0.0017809403833455612
184,-3.3441058043493865,-0.028069424278168564,0.0023035992737186696,-0.11532668937830556,0.004480833765545262
185,-3.34466719283495,-0.1593345285501247,-2.9345138474416027e-06,0.08224770219178656,0.013534394931187724
186,-3.3478538834059526,-0.07447184431241582,0.0016420195299882898,-0.04504718691129986,0.0018689762108702475
187,-3.349343320292201,-0.0506662681753763,0.0007410757917622926,-0.08027274945304094,0.0019240842697237962
188,-3.3503566456557086,-0.08523740634798158,-0.0008643791972985262,-0.0281981801709758,0.007300624481166865
189,-3.352061393782668,-0.002901495868331508,-0.0014283428007180422,-0.1519561272047714,0.0007702907547837931
