,X,v,theta,theta_dot,energy
0,0.0,-2.0,-0.5235987755982988,0.0,1.2
1,-0.04,-2.5687518211086795,-0.5235987755982988,0.5918302882931687,1.2844253120881217
2,-0.0913750364221736,-3.0462811087092447,-0.5117621698324354,1.065159029462931,1.0286306961606178
3,-0.1523006585963585,-3.369123367348054,-0.49045898924317677,1.3434039602274566,1.211107940929953
4,-0.21968312594331957,-3.714825617901914,-0.4635909100386276,1.6623455195661507,1.0000627390587642
5,-0.29397963830135787,-3.9740520659611613,-0.43034399964730463,1.8786782670780364,1.1682502394671133
6,-0.3734606796205811,-4.258983359863973,-0.3927704343057439,2.144454196940588,0.4199588100646125
7,-0.4586403468178606,-4.352919079079705,-0.34988135036693213,2.162099972039206,0.4620421153760218
8,-0.5456987283994547,-4.454805980407212,-0.306639350926148,2.2048916646895464,0.48101717649326464
9,-0.6347948480075989,-4.559083515510646,-0.2625415176323571,2.2652658768239147,0.5110355975592669
10,-0.7259765183178118,-4.668061627364794,-0.21723620009587882,2.3468280641736814,0.07332714131306313
11,-0.8193377508651077,-4.681831183193535,-0.1702996388124052,2.3036306636288173,0.14670904205778187
12,-0.9129743745289784,-4.711513951705352,-0.12422702553982885,2.297684298987283,0.6001116279207045
13,-1.0072046535630854,-4.583465983524329,-0.07827333956008319,2.07066362357869,0.213303696206315
14,-1.098873973233572,-4.536343394393251,-0.036860067088509384,1.9772072887210075,0.16365275169249863
15,-1.189600841121437,-4.571859522234131,0.002684078685910765,2.019610887754101,0.4040258651778055
16,-1.2810380315661196,-4.48390440967549,0.043076296440992784,1.8884678123418441,0.15151350683966217
17,-1.3707161197596294,-4.4507675935225866,0.08084565268782967,1.8514692115763614,0.3893542924920858
18,-1.459731471630081,-4.364709866244686,0.1178750369193569,1.746546985500186,0.3646188326898663
19,-1.5470256689549748,-4.283121199253333,0.15280597662936063,1.6595882913286866,1.242389309010219
20,-1.6326880929400416,-3.9973632178404674,0.18599774245593437,1.280696185297229,0.2638444842618191
21,-1.712635357296851,-3.934503618202178,0.21161166616187896,1.2424016524580577,0.595179184382327
22,-1.7913254296608945,-3.787928698385318,0.2364596992110401,1.0891941450137252,0.9090741689843247
23,-1.8670840036286007,-3.554716156725331,0.2582435821113146,0.8179827127842694,0.7271808914011617
24,-1.9381783267631074,-3.357419272458241,0.27460323636699996,0.6069334599261355,0.4100051381436989
25,-2.0053267122122724,-3.2415993920577826,0.28674190556552265,0.5194353262403475,0.7906557019468664
26,-2.0701587000534283,-3.0071560463526286,0.2971306120903296,0.2652802602850063,0.539321509318199
27,-2.1303018209804807,-2.8365760746523736,0.3024362172960297,0.10669905421547293,0.44219135926710734
28,-2.187033342473528,-2.6892711202001727,0.30457019838033916,-0.016662997935387017,0.19039037139112555
29,-2.2408187648775315,-2.6247474642659814,0.3042369384216314,-0.020828364382091402,0.39608633486887834
30,-2.293313714162851,-2.482606276629932,0.3038203711339896,-0.13617638726952583,0.2922948547375312
31,-2.3429658396954496,-2.372821117062392,0.30109684338859904,-0.20535664468505593,0.336757992175962
32,-2.3904222620366973,-2.2397840157548092,0.2969897104948979,-0.3087436844435744,0.06307241492847933
33,-2.4352179423517937,-2.2708845481630817,0.29081483680602643,-0.17809812407044112,0.019773544786708563
34,-2.4806356333150554,-2.2663761834862965,0.2872528743246176,-0.10027723039097833,0.2676624741939129
35,-2.5259631569847816,-2.155919752414848,0.28524732971679806,-0.17587737453086352,0.1305161361078773
36,-2.5690815520330785,-2.218274948263252,0.2817297822261808,-0.00339397607734665,0.5304670327454658
37,-2.6134470509983436,-1.9901085803437544,0.28166190270463387,-0.25041348050211515,0.29905269670589396
38,-2.653249222605219,-1.8489161134499337,0.27665363309459157,-0.3721385928245705,0.18130778658000818
39,-2.6902275448742174,-1.9469467282744244,0.2692108612381002,-0.15038152431772503,0.08583855775505936
40,-2.729166479439706,-1.9079513998528699,0.2662032307517457,-0.1285722461888657,0.04436635701785889
41,-2.7673255074367633,-1.8890633494852875,0.26363178582796837,-0.07856370122105315,0.4489913858880811
42,-2.805106774426469,-1.662336639346696,0.2620605118035473,-0.3302905964789529,0.1741168006954564
43,-2.838353507213403,-1.7666882625063693,0.25545469987396824,-0.10294033739241795,0.1884484137787608
44,-2.8736872724635303,-1.6668584347409905,0.2533958931261199,-0.17353613610957186,0.11540018236699057
45,-2.90702444115835,-1.6033880337292326,0.24992517040392845,-0.1919978088755417,0.20880552438241212
46,-2.939092201832935,-1.4809793913357,0.2460852142264176,-0.2971906409997793,0.07247076252837657
47,-2.9687117896596487,-1.5314495753113992,0.240141401406422,-0.1521450552557812,0.0744768176084789
48,-2.9993407811658765,-1.5817871199972589,0.2370985003013064,-0.00888048885101525,0.28976391063670454
49,-3.0309765235658217,-1.4070912842562124,0.23692089052428608,-0.19453750803325742,0.19584276824889707
50,-3.059118349250946,-1.2759202623415948,0.23303014036362094,-0.3167927719292555,0.1690278931273522
51,-3.084636754497778,-1.406450007639622,0.22669428492503582,-0.058397778221602525,0.2903980933070224
52,-3.1127657546505705,-1.2092489442773744,0.22552632936060377,-0.2805524611169383,0.05228524984807661
53,-3.1369507335361178,-1.1707447136606188,0.219915280138265,-0.27110211496790565,0.11325202238054659
54,-3.16036562780933,-1.0806803918555694,0.2144932378389069,-0.33880972344435956,0.07223383590986687
55,-3.181979235646441,-1.0195273197694683,0.2077170433700197,-0.3658587131640702,0.08276636327918872
56,-3.2023697820418304,-1.1000995680586247,0.2003998691067383,-0.18696767203016212,0.056233651300874335
57,-3.224371773403003,-1.1522345832513714,0.19666051566613504,-0.051806215117467996,0.16143852135011855
58,-3.2474164650680306,-1.0189363667577018,0.19562439136378568,-0.19045324639954242,0.05844599873297585
59,-3.2677951924031845,-0.9663113887485166,0.19181532643579483,-0.21073765689402163,0.13045666010194593
60,-3.287121420178155,-0.8388838086279649,0.18760057329791438,-0.3423249267932243,0.0185443032672619
61,-3.303899096350714,-0.8203568930154835,0.18075407476204988,-0.3147960866268507,0.052049394051220416
62,-3.3203062342110234,-0.8835811970112535,0.17445815302951287,-0.1686518713977162,0.13343700212583803
63,-3.3379778581512487,-0.740257441688653,0.17108511560155854,-0.32934326529421487,0.002196785382847868
64,-3.352783006985022,-0.7398077739771299,0.16449825029567425,-0.27995391308408474,0.0057760786764837375
65,-3.3675791624645646,-0.7346322641093794,0.15889917203399256,-0.2394677105021532,0.02979773697418275
66,-3.382271807746752,-0.7757900086937276,0.1541098178239495,-0.1319888325699391,0.044178332583632796
67,-3.3977876079206264,-0.722917989033091,0.15147004117255072,-0.16522779293267995,0.08420099165042769
68,-3.4122459677012884,-0.6127591956193302,0.14816548531389712,-0.28421195783633335,0.016077490399621967
69,-3.424501151613675,-0.5898032787829979,0.14248124615717045,-0.2748671141289758,0.01028472914672065
70,-3.436297217189335,-0.608443878118674,0.13698390387459095,-0.20544165334331968,0.022573894958564888
71,-3.4484660947517085,-0.5747703732573685,0.13287507080772454,-0.21533131512193326,0.053303219554478955
72,-3.459961502216856,-0.48778520819981563,0.12856844450528587,-0.3057084953545065,0.03005760088520034
73,-3.469717206380852,-0.5479899039677439,0.12245427459819574,-0.17845173174071272,0.011045080901588658
74,-3.480677004460207,-0.5690810123382323,0.11888523996338149,-0.11114031961413537,0.02461930514691526
75,-3.4920586247069716,-0.5289723078227867,0.11666243357109878,-0.13600872902129538,0.018562755288282686
76,-3.5026380708634273,-0.49681675517225904,0.11394225899067287,-0.1496931926386616,0.05319482977644887
77,-3.5125744059668724,-0.3954728098039884,0.11094839513789964,-0.2672967930229849,0.007961181173321567
78,-3.520483862162952,-0.41608247138250454,0.10560245927743994,-0.2040204283941655,0.002769946772092332
79,-3.528805511590602,-0.4112314173865415,0.10152205070955664,-0.1802670237367002,0.04363661560804445
80,-3.537030139938333,-0.31123798472978237,0.09791671023482264,-0.29968864495402625,0.027534071739047847
81,-3.5432548996329287,-0.39527102936105485,0.09192293733574211,-0.14550132302777102,0.028465972891864613
82,-3.55116032022015,-0.32751355510635205,0.08901291087518669,-0.2197211327759246,0.016623755671652574
83,-3.557710591322277,-0.2807468023404481,0.08461848821966819,-0.263458284204682,0.011389463884303412
84,-3.563325527369086,-0.3198933933836801,0.07934932253557456,-0.18010034047878695,0.05060634357594897
85,-3.5697233952367595,-0.47145363152358866,0.07574731572599881,0.06982891665072893,0.009400236419509217
86,-3.5791524678672313,-0.45295921240706677,0.0771438940590134,0.06441525683170689,0.01271726773584647
87,-3.5882116521153726,-0.4265035135347881,0.07843219919564753,0.047507547733539615,0.03475670026026495
88,-3.5967417223860685,-0.34775105020797903,0.07938235015031833,-0.04722256055240176,0.013015601691790992
89,-3.6036967433902283,-0.3126089894117608,0.07843789893927029,-0.07645574438158882,0.02527385896748142
90,-3.6099489231784636,-0.23575176867744962,0.07690878405163852,-0.16835000633245362,0.01091080826982193
91,-3.6146639585520126,-0.19313020646081944,0.07354178392498945,-0.2095044657856841,0.022750925405710904
92,-3.618526562681229,-0.3036745990189601,0.06935169460927576,-0.022534275272141413,0.012720508702274444
93,-3.624600054661608,-0.2639500520603943,0.06890100910383293,-0.06160479922624212,0.015898451295497763
94,-3.629879055702816,-0.2068063734188642,0.06766891311930809,-0.1268760642050952,0.0063177174258505645
95,-3.634015183171193,-0.23675981489173328,0.06513139183520618,-0.06216925147188847,0.012912914108966604
96,-3.6387503794690277,-0.18512343217874677,0.06388800680576841,-0.12032450497794953,0.0002694579707810939
97,-3.642452848112603,-0.1846570413597086,0.06148151670620942,-0.10225236508253001,0.00014004326488251527
98,-3.646145988939797,-0.1862572526283689,0.059436469404558816,-0.08179240279518679,0.009442540587180514
99,-3.6498711339923644,-0.13862613060028917,0.05780062134865508,-0.13564888810414902,0.010310566263884635
100,-3.6526436566043703,-0.06999154948036021,0.0550876435865721,-0.22144490907086317,0.004883068828756788
101,-3.6540434875939773,-0.13028149756776305,0.05065874540515484,-0.11495959429438297,0.017554172895070996
102,-3.6566491175453324,-0.2573730958882817,0.04835955351926718,0.09032053998409191,0.02086281529421667
103,-3.6617965794630982,-0.17771493087919668,0.05016596431894901,-0.014814847861585184,0.0019961820048539835
104,-3.665350878080682,-0.18934824207894924,0.04986966736171731,0.017355774133720726,0.026541528204890027
105,-3.669137842922261,-0.05276140737190721,0.050216782844391725,-0.1726141580640696,0.0008257227847872352
106,-3.6701930710696993,-0.040187409158401216,0.04676449968311033,-0.1766938493295323,0.0023267277067219594
107,-3.6709968192528675,0.0062213215532830254,0.043230622696519685,-0.23248708796923387,0.00032143597266103474
108,-3.670872392821802,-0.06668573201089056,0.038580880937135006,-0.1105228383988557,0.0038966012109108886
109,-3.67220610746202,-0.014227759507971602,0.036370424169157894,-0.17781127698262492,0.0011911577162754513
110,-3.672490662652179,-0.06684276235973123,0.032814198629505395,-0.08825041918261242,0.00012214421906607247
111,-3.673827517899374,-0.06899449464572549,0.031049190245853148,-0.07537891513714212,0.006589197376466175
112,-3.6752074077922883,-0.15820068727910286,0.029541611943110304,0.06749287470779688,0.002756006068195081
113,-3.6783714215378702,-0.14129305924320254,0.030891469437266242,0.050826469090305415,0.015170609415317492
114,-3.681197282722734,-0.03525170438329493,0.03190799881907235,-0.09907902654470874,0.0027051432692161296
115,-3.6819023168104,-0.10209253434889694,0.029926418288178176,0.010510543635847441,0.03381907393553204
116,-3.683944167497378,0.22215559147183417,0.030136629160895125,-0.4668468124441788,0.021101571281496246
117,-3.6795010556679415,0.11928507216779892,0.02079969291201155,-0.303752271830083,0.006455834384074971
118,-3.6771153542245854,0.059279272663318124,0.01472464747540989,-0.20764837317982252,0.004343507472728281
119,-3.675929768771319,-0.02595083013773857,0.010571680011813439,-0.0754881881913404,0.004310481059778767
120,-3.676448785374074,0.11702337838288981,0.009061916247986631,-0.28682950091036247,0.013048622310026374
121,-3.6741083178064162,-0.005528999199744297,0.0033253262297793813,-0.10034431541810121,0.0009741930299957875
122,-3.674218897790411,-0.09977118991939414,0.0013184399214173572,0.041995833188795906,0.0031513025988417053
123,-3.676214321588799,-0.13120609092427699,0.002158356585193275,0.08953576493863849,0.008331154763858116
124,-3.6788384434072845,-0.06730601343448041,0.003949071883966045,-0.00567957169374278,0.002723749687441889
125,-3.680184563675974,-0.10669286766396205,0.003835480450091189,0.05456127308375257,0.010945837794004327
126,-3.682318421029253,-0.004276275007878139,0.004926705911766241,-0.0979348574331972,0.00040578825476805347
127,-3.6824039465294107,-0.04970644674608877,0.0029680087631022965,-0.028341981171251834,0.0022522599371653596
128,-3.6833980754643325,-0.0928382859864792,0.0024011691396772596,0.03722808602103232,8.800677708466627e-05
129,-3.685254841184062,-0.09193071226719347,0.0031457308600979063,0.03657267241534003,0.0025531747202703894
130,-3.6870934554294057,-0.11957022247691332,0.003877184308404707,0.07895657594501687,0.000900196445721363
131,-3.689484859878944,-0.11205355398414073,0.0054563158273050446,0.06882154728257625,0.003507075435602184
132,-3.6917259309586266,-0.08072008947153281,0.006832746772956569,0.023426199035922593,0.005590458833623686
133,-3.693340332748057,-0.012346945964644848,0.007301270753675021,-0.07712231023986363,0.0009792175416538217
134,-3.69358727166735,-0.0727155832800625,0.005758824548877749,0.015574786650227351,0.006106825141626346
135,-3.695041583332951,0.009941148271346276,0.006070320281882296,-0.10671516969888145,7.873051705103785e-05
136,-3.694842760367524,0.024943002516652442,0.003936016887904667,-0.12743287326561997,0.003038803775991811
137,-3.694343900317191,-0.1299221122999223,0.0013873594225922675,0.10602018553434506,0.009002611576858886
138,-3.6969423425631893,-0.05973558398587134,0.0035077631332791686,0.0011483779221390794,0.004878734995693383
139,-3.6981370542429066,0.019963892819308493,0.0035307306917219503,-0.11736882154927167,0.00028866096489527484
140,-3.6977377763865205,0.03916417089441374,0.0011833542607365168,-0.14513102648159643,0.0027247006493208957
141,-3.696954492968632,-0.042475859369724166,-0.0017192662688954117,-0.02232316075599282,0.0006949404330922442
142,-3.6978040101560263,-0.026861826427268323,-0.002165729484015268,-0.04624963958886058,0.0010315398258025261
143,-3.6983412466845715,0.007915027713152993,-0.0030907222757924797,-0.09905152243248858,0.0003004218413951951
144,-3.6981829461303084,-0.07792347520678788,-0.0050717527244422515,0.028796946062163847,0.005922278210969155
145,-3.699741415634444,-0.0024365804973977695,-0.004495813803198975,-0.08592302861985972,4.719326503833458e-05
146,-3.699790147244392,-0.009631881793831683,-0.006214274375596169,-0.0764519505559114,5.81230949340879e-05
147,-3.6999827848802687,-0.0052164231530274436,-0.007743313386714397,-0.08490199554055253,0.00021417239562469408
148,-3.7000871133433293,-0.028128807041831468,-0.009441353297525448,-0.05281096143925122,0.0012664068650380398
149,-3.700649689484166,-0.06846326474007945,-0.010497572526310473,0.004912311962092741,0.0015726042021406994
150,-3.7020189547789677,-0.09079566748579813,-0.010399326287068618,0.03532284070204335,0.004266429166706586
151,-3.7038348681286837,-0.043978432445339825,-0.00969286947302775,-0.03795656139186031,0.0022402438823440336
152,-3.7047144367775906,0.0039814433873419375,-0.010452000700864956,-0.11274265473562627,0.00010653990093943981
153,-3.704634807909844,-0.08681510056054179,-0.012706853795577481,0.02037188974189237,0.0013699793971047158
154,-3.706371109921055,-0.07107156701012898,-0.012299416000739635,-0.006977218580734402,0.007802068912857763
155,-3.7077925412612576,-0.17751839204633452,-0.012438960372354323,0.14906500488220428,0.008687758578729055
156,-3.7113429091021843,-0.22698074329402101,-0.009457660274710237,0.2195958318873105,0.00804009184768155
157,-3.7158825239680646,-0.2629928551566012,-0.005065743636964027,0.2708310731397497,0.030143049154798797
158,-3.7211423810711968,-0.1456095935058844,0.0003508778258309673,0.09326911759505899,8.879798403970048e-05
159,-3.7240545729413146,-0.14622742676723607,0.002216260177732147,0.09429902550871554,0.0020168740246736204
160,-3.7269791214766594,-0.1323965342587535,0.0041022406879064575,0.07420431765584623,0.0014738503118837468
161,-3.7296270521618347,-0.12131086720632955,0.005586327041023382,0.05878201237194468,0.002342838667052076
162,-3.732053269505961,-0.10212503072805093,0.006761967288462276,0.03164607831114259,0.0013760325838039931
163,-3.7340957701205224,-0.08888888016178051,0.007394888854685127,0.013780309602070513,0.004999965488822275
164,-3.735873547723758,-0.03372803179196497,0.007670495046726537,-0.06678462312684826,0.0002397374800735576
165,-3.7365481083595973,-0.040199974250874786,0.006334802584189572,-0.05482189159703148,0.0013242382533298711
166,-3.7373521078446146,-0.010028906036900494,0.0052383647522489425,-0.09821516635025772,0.0001564837178108559
167,-3.7375526859653525,-0.0206376685055236,0.003274061425243788,-0.0807621687851017,0.001584581518159964
168,-3.737965439335463,-0.0842805261134611,0.001658818049541754,0.01566417830289965,0.006243572873745012
169,-3.7396510498577324,-0.011414554457431197,0.001972101615599747,-0.09314693652054516,0.00026791393550720935
170,-3.739879340946881,0.005260334811583198,0.00010916288518884355,-0.11757942428612544,1.670620574549957e-06
171,-3.7397741342506494,-0.014102951287883886,-0.0022424256005336655,-0.0885024014218005,0.0010974151553686425
172,-3.740056193276407,0.044996955128127,-0.004012473628969676,-0.17781131073325057,0.0029438155565680185
173,-3.7391562541738446,-0.03274679538804655,-0.007568699843634687,-0.062376287791779436,0.0022110776569782367
174,-3.7398111900816056,-0.09326277757253382,-0.008816225599470276,0.02616990898503674,0.0005635248379861248
175,-3.7416764456330562,-0.08716527030609098,-0.008292827419769541,0.014432066784248604,0.0017151427677575604
176,-3.7434197510391782,-0.06770389658088743,-0.008004186084084569,-0.017197053342423413,0.0017872078657046413
177,-3.744773828970796,-0.042129594934373696,-0.008348127150933037,-0.057910482548663524,0.004899562601137011
178,-3.7456164208694833,-0.14879824482364873,-0.009506336801906308,0.0996325960411108,0.005211885119192007
179,-3.7485923857659564,-0.18390665228362024,-0.007513684881084092,0.14949800675288108,0.008983135929646672
180,-3.752270518811629,-0.13431609209770126,-0.00452372474602647,0.0729052636376987,0.003009121397870736
181,-3.754956840653583,-0.15666096215853692,-0.0030656194732724953,0.10509225523982135,0.0005825050692525836
182,-3.758090059896754,-0.15287537828212938,-0.0009637743684760684,0.09851261539452624,0.010060442938325944
183,-3.7611475674623964,-0.08672120902857045,0.0010064779394144564,-0.0010019420202597856,0.0012929554106865737
184,-3.762881991642968,-0.10127369818213246,0.0009864390990092606,0.02112268511808349,0.004270139485549418
185,-3.7649074656066106,-0.05975817623167894,0.0014088928013709305,-0.04086055446163837,0.003387706443930937
186,-3.766102629131244,-0.006137975161248581,0.0005916817121381632,-0.12087656189450172,0.0007621969492787129
187,-3.766225388634469,0.05777923536955048,-0.001825849525751871,-0.2165784064950318,0.005401698820956942
188,-3.765069803927078,-0.052134484582288386,-0.006157417655652507,-0.05224490084622088,0.002990839412481796
189,-3.7661124936187234,-0.1055763156747554,-0.007202315672576925,0.026106056808740452,0.0024990585556697808
