,X,v,theta,theta_dot,energy
0,0.0,-2.0,-0.6981317007977318,0.0,1.166638227562649
1,-0.04,-2.54553715108717,-0.6981317007977318,0.4378789974100849,1.462597422044885
2,-0.0909107430217434,-3.0861995776713766,-0.6893741208495301,0.8701566113943233,1.6798216076324548
3,-0.15263473457517093,-3.6007656661279963,-0.6719709886216436,1.2787495845193941,1.8395795867047382
4,-0.22465004789773085,-4.085882620959649,-0.6463959969312557,1.6652018768742838,1.6906721366808237
5,-0.30636770031692384,-4.4799822475064905,-0.61309195939377,1.9600125240529271,1.4168210041512401
6,-0.3959673452670537,-4.781792021671397,-0.5738917089127115,2.1611082239764867,1.2440059498927536
7,-0.4916031857004816,-5.030686257202309,-0.5306695444331817,2.3150243544492892,0.9745670388662764
8,-0.5922169108445278,-5.216115533948982,-0.48436905734419594,2.4061180827608326,0.9868329559359202
9,-0.6965392215235074,-5.398057264357162,-0.4362466956889793,2.510736123041767,1.3940029639215439
10,-0.8045003668106507,-5.6488094085372715,-0.3860319732281439,2.7274107073545157,0.32580261127337756
11,-0.9174765549813961,-5.703423005538915,-0.3314837590810536,2.69260709332375,1.091200025900175
12,-1.0315450150921743,-5.890420327268563,-0.27763161721457863,2.8621517822164697,0.05677450526790655
13,-1.1493534216375456,-5.89839580116731,-0.22038858157024924,2.793077742752786,0.6139058742731666
14,-1.2673213376608918,-6.000376547271444,-0.1645270267151935,2.8780778907624307,0.013741699414459707
15,-1.3873288686063208,-5.997105756431045,-0.10696546889994489,2.8250849436216066,0.26602430899808877
16,-1.5072709837349416,-6.040599086538627,-0.05046377002751276,2.858564156020375,0.5031362839172524
17,-1.628082965465714,-6.123309930043486,0.006707513092894746,2.9676424295460437,0.6328236151325811
18,-1.7505491640665838,-6.020253534831193,0.06606036168381563,2.815033308213876,0.6537337930792004
19,-1.8709542347632075,-5.912491770804013,0.12236102784809315,2.673150859293802,1.2013805407873923
20,-1.9892040701792877,-5.711248095325187,0.1758240450339692,2.4094267671372225,1.0991857973649877
21,-2.1034290320857916,-5.521789657827927,0.22401258037671365,2.1810468522496653,1.069544205766354
22,-2.21386482524235,-5.332229637698392,0.26763351742170693,1.969121616021245,1.62499599538918
23,-2.320509417996318,-5.034230765707209,0.30701594974213187,1.6157849942554021,1.4886173673481842
24,-2.4211940333104622,-4.7469786651562735,0.33933164962723994,1.293906209939566,1.3031237780564697
25,-2.5161336066135878,-4.482111711106571,0.36520977382603126,1.0171208424159226,1.9119204292823806
26,-2.6057758408357192,-4.070184763776964,0.3855521906743497,0.5449816988028513,1.4978145358802109
27,-2.6871795361112585,-3.717668525725342,0.39645182465040674,0.16558901507578705,0.5520986101352378
28,-2.7615329066257654,-3.5791227210397403,0.3997636049519225,0.08741682421733545,0.6052390267630983
29,-2.83311536104656,-3.4208684812312375,0.40151194143626917,-0.016822757752779582,0.4310126893084707
30,-2.901532730671185,-3.3044319031429628,0.4011754862812136,-0.06268924338866866,0.5463513856915452
31,-2.967621368734044,-3.150129463896915,0.3999217014134402,-0.16095885828138548,0.19976447663139155
32,-3.0306239580119825,-3.0941479257582056,0.3967025242478125,-0.12383724551950956,0.6194721705498734
33,-3.0925069165271464,-2.9063077329478015,0.3942257793374223,-0.2701206117105639,0.17513183118878203
34,-3.1506330711861024,-2.9692477036853897,0.388823367103211,-0.07002896514094287,0.5805656731273657
35,-3.21001802525981,-2.785639554100059,0.3874227878003922,-0.2134278909231256,0.00414720856979098
36,-3.265730816341811,-2.7920206026604104,0.38315422998192966,-0.09349148775596419,0.42034802141885447
37,-3.3215712283950194,-2.6517504866632464,0.38128440022681037,-0.17872892764721382,0.13164365548196838
38,-3.374606238128284,-2.6088313499252673,0.3777098216738661,-0.129083229958402,0.662449051734029
39,-3.4267828651267895,-2.3689139602793046,0.37512815707469804,-0.3551672003421543,0.055980121026126026
40,-3.4741611443323754,-2.3510244903700594,0.36802481306785495,-0.27241619018163427,0.26262292989828273
41,-3.5211816341397766,-2.2483374507571483,0.36257648926422226,-0.310359507304387,0.2556234417948998
42,-3.5661483831549194,-2.143749130434876,0.35636929911813453,-0.3527652334265572,0.1381537675964261
43,-3.609023365763617,-2.0864710097685375,0.34931399444960337,-0.3307152647814325,0.21227246116741935
44,-3.6507527859589874,-1.9932574620982884,0.3426996891539747,-0.36146904479692754,0.37316851759941727
45,-3.690617935200953,-1.8179616127437739,0.33547030825803614,-0.5103297607843864,0.04710042098634576
46,-3.7269771674558285,-1.7975232405503991,0.3252637130423484,-0.44248962188587493,0.011489765409884082
47,-3.7629276322668366,-1.7956482728522907,0.3164139206046309,-0.3512043540333839,0.12055530407062555
48,-3.7988405977238826,-1.7353285386491126,0.30938983352396326,-0.34571111978356817,0.09851633387258692
49,-3.8335471684968647,-1.6848823790806782,0.3024756111282919,-0.3282711637066572,0.03648494195180952
50,-3.8672448160784785,-1.6680893862774955,0.2959101878541588,-0.2647391036531944,0.3508435705332521
51,-3.9006066038040283,-1.4695160441308808,0.2906154057810949,-0.46391974612770903,0.01976320550265021
52,-3.929996924686646,-1.4605045431022372,0.28133701085854074,-0.39262687581572414,0.14567943819194173
53,-3.959207015548691,-1.368623482258285,0.27348447334222625,-0.44340376271408954,0.01763183829646777
54,-3.9865794851938565,-1.3599547002637955,0.26461639808794446,-0.37651779583894796,0.031171185504589048
55,-4.0137785791991325,-1.3855040325436234,0.2570860421711655,-0.2626352676691979,0.03647068104379617
56,-4.041488659850005,-1.363648340583482,0.25183333681778153,-0.21958792174101785,0.10366104057497855
57,-4.068761626661675,-1.2937739173185032,0.24744157838296116,-0.24783461990048555,0.08698363082483769
58,-4.094637105008045,-1.2323910351110716,0.24248488598495144,-0.26509682900357895,0.09856704338057741
59,-4.119284925710266,-1.1587327228617426,0.23718294940487986,-0.3017579376177304,0.11505829134414033
60,-4.142459580167501,-1.0665874380875258,0.23114779065252525,-0.3670264584492394,0.07059793287452143
61,-4.163791328929252,-1.13310685067018,0.22380726148354047,-0.20254714485478104,0.08502397275525996
62,-4.186453465942655,-1.063820988143202,0.21975631858644484,-0.23863250717010961,0.09566336179525962
63,-4.207729885705519,-0.9802843089787021,0.21498366844304265,-0.2968344235469742,0.013841631083387885
64,-4.227335571885093,-0.9967927805100188,0.20904697997210317,-0.2099223038021571,0.029245740041439573
65,-4.247271427495294,-0.9714167218107642,0.20484853389606003,-0.18614455345748807,0.07022834490222522
66,-4.266699761931509,-0.9045338287741082,0.20112564282691026,-0.22456614661260668,0.0888702216825591
67,-4.284790438506991,-0.8127945263166743,0.19663431989465813,-0.30066813548289195,0.020702460932036433
68,-4.3010463290333245,-0.8398956137711162,0.1906209571850003,-0.20336120548873854,0.0382755367418459
69,-4.317844241308747,-0.7986795019801803,0.18655373307522552,-0.20836175747470062,0.11971460477985846
70,-4.333817831348351,-0.6570920807987789,0.1823864979257315,-0.36252870130665504,0.04735831100615917
71,-4.346959672964326,-0.7280772584727736,0.1751359238995984,-0.20449217491710117,0.004679401578089611
72,-4.361521218133782,-0.7243466621232081,0.17104608040125638,-0.15877532503015981,0.0677691930007688
73,-4.376008151376246,-0.6365446637517402,0.16787057390065319,-0.23851371596094162,0.013782735756956807
74,-4.388739044651281,-0.6181601688818096,0.16310029958143435,-0.21658033457912712,0.0322970528961959
75,-4.401102248028917,-0.6705333951023236,0.15876869288985182,-0.09132392177760232,0.14942830055614903
76,-4.414512915930963,-0.45706804634730924,0.15694221445429976,-0.3610125829680738,0.020908935177943157
77,-4.42365427685791,-0.5022821387089389,0.1497219627949383,-0.24807314913656792,0.03835295699635631
78,-4.4336999196320885,-0.5771432637661695,0.14476049981220693,-0.09318373060599303,0.13757680894822763
79,-4.445242784907412,-0.34865264974127236,0.14289682520008706,-0.38992370062411674,0.04895220878019061
80,-4.452215837902238,-0.48087070095420303,0.13509835118760471,-0.15174921442447967,0.02547937394477791
81,-4.461833251921322,-0.43187774608484414,0.13206336689911513,-0.1849708141799974,0.06121144164041986
82,-4.47047080684302,-0.2982571778757277,0.12836395061551517,-0.34494250739372073,0.022505974040074442
83,-4.476435950400535,-0.3699454405664352,0.12146510046764075,-0.20065937218828722,0.0050998602014076305
84,-4.483834859211863,-0.35854997340557687,0.117451913023875,-0.1820036403538943,0.02458237379669252
85,-4.491005858679975,-0.2948894900317075,0.11381184021679712,-0.24238495201245974,0.005071387759114198
86,-4.496903648480608,-0.31266184538895986,0.10896414117654793,-0.18251039746817266,0.0005557676121276096
87,-4.503156885388387,-0.31589548574052306,0.10531393322718448,-0.14571660235084374,0.03712054108395745
88,-4.5094747951031975,-0.205181139505416,0.10239960118016761,-0.2799629267646105,0.03214438496517704
89,-4.513578417893306,-0.35047873664251056,0.0968003426448754,-0.033105293254888174,0.02883075661119496
90,-4.520587992626155,-0.271998681847018,0.09613823677977763,-0.12185939320789238,0.026113165409490616
91,-4.526027966263095,-0.18162640674518454,0.09370104891561978,-0.22857071267554088,0.014460169653896814
92,-4.529660494397999,-0.256396663731653,0.08912963466210896,-0.08939950831725996,0.03320275211219617
93,-4.534788427672632,-0.13336322001840634,0.08734164449576376,-0.24704768558864193,0.006267913516044785
94,-4.537455692073,-0.09232381401666112,0.08240069078399093,-0.2827263323924271,0.015449324997829071
95,-4.539302168353333,-0.23678651491449096,0.07674616413614238,-0.04256913014885064,0.017617148792736844
96,-4.544037898651623,-0.16591352882543536,0.07589478153316537,-0.1260244537365225,0.010018762567376308
97,-4.547356169228132,-0.22392399035998942,0.07337429245843492,-0.016967595808111746,0.0008918595093975608
98,-4.551834649035332,-0.221101179596854,0.07303494054227269,0.0003622716397547465,0.009166953163337339
99,-4.556256672627269,-0.18170801741850554,0.07304218597506779,-0.03711675790023551,0.0006558461508801412
100,-4.559890832975639,-0.179263682877532,0.07229985081706308,-0.019318170500066293,0.018309043957218427
101,-4.56347610663319,-0.08117521935500115,0.07191348740706176,-0.1448288398468509,0.0025522135732321746
102,-4.56509961102029,-0.11056868481362048,0.06901691061012474,-0.07972825315468265,0.002444250250428804
103,-4.5673109847165625,-0.09067775282045437,0.0674223455470311,-0.08921875220678867,0.010961592754744313
104,-4.569124539772972,-0.20450213891034333,0.06563797050289533,0.10093706422962521,0.027154920266728777
105,-4.573214582551178,-0.07296833842671985,0.06765671178748783,-0.07665505994637185,1.1596550864173135e-05
106,-4.574673949319712,-0.07378701679746827,0.0661236105885604,-0.05555395016404428,0.009173916481787387
107,-4.5761496896556615,0.042522327177929684,0.0650125315852795,-0.21021051978199168,0.003620623146895584
108,-4.575299243112103,-0.06545587494148801,0.06080832118963967,-0.029485161209480498,0.00235631980154192
109,-4.5766083606109325,-0.03191765005767008,0.06021861796545006,-0.06183288676579717,0.0022055766164207464
110,-4.577246713612086,0.029174346969278793,0.05898196023013412,-0.13561120439819255,0.0016662623740438631
111,-4.5766632266727,-0.042266824423243886,0.05626973614217027,-0.011305150561672472,0.0008541832465079947
112,-4.577508563161165,-0.0625473494609317,0.05604363313093682,0.03560206296429945,0.006748117420383542
113,-4.578759510150383,0.04467381713461638,0.05675567439022281,-0.1085089715289951,0.00484737583812433
114,-4.577866033807691,-0.07508409646462157,0.05458549495964291,0.0875158642393621,0.005550071638050975
115,-4.579367715736984,0.00026170931657439056,0.056335812244430156,-0.009294345039819699,4.973855460145957e-06
116,-4.579362481550652,0.029759430868390474,0.056149925343633764,-0.03691676345189786,0.00028569658452953745
117,-4.578767292933285,0.019033588760203477,0.055411590074595805,-0.004353951131741134,0.0009789650371175988
118,-4.578386621158081,0.06893482355005802,0.055324511051960984,-0.06280824650483458,3.5130733655508114e-05
119,-4.57700792468708,0.06762487316634862,0.05406834612186429,-0.04458921729692704,0.0027678183811204143
120,-4.575655427223753,0.10800508055025546,0.05317656177592575,-0.08918266491589705,0.011932905716379621
121,-4.573495325612748,0.21920872047530887,0.05139290847760781,-0.24012579649583482,0.03455637214785533
122,-4.569111151203241,0.05666184505266708,0.04659039254769111,0.01847545929754857,0.005363078497988667
123,-4.567977914302188,0.14697520587406687,0.04695990173364208,-0.10315495803902588,0.007228548224445499
124,-4.565038410184706,0.1958573382399119,0.04489680257286156,-0.16259618674659265,0.014642385244904339
125,-4.561121263419908,0.11943224906308837,0.04164487883792971,-0.034878846498286264,0.003022006537356281
126,-4.558732618438646,0.14385041372525684,0.04094730190796398,-0.05923428115623422,0.0003617537713519655
127,-4.555855610164141,0.1457639449607436,0.0397626162848393,-0.050067029139500084,0.016875201052769604
128,-4.552940331264926,0.030470668653648864,0.0387612757020493,0.1344233175868543,0.001587560163486506
129,-4.552330917891853,0.07225731080197875,0.04144974205378638,0.08318339649075604,0.002825194098551479
130,-4.550885771675813,0.10790958419520372,0.043113409983601504,0.04193365492376981,0.008130737586354245
131,-4.548727579991909,0.17951759356936464,0.043952083082076904,-0.052707131542524974,0.0028073880364289606
132,-4.545137228120522,0.16342720213992354,0.042897940451226406,-0.01567710060177279,0.004879560898536719
133,-4.541868684077723,0.19206581261548433,0.04258439843919095,-0.04598736940295538,0.0010741048798564475
134,-4.538027367825413,0.18594076914533408,0.041664651051131846,-0.02429210393195925,0.009843856227542962
135,-4.534308552442506,0.13339276291053287,0.04117880897249266,0.06670736372408667,0.016802238478498974
136,-4.5316406971842955,0.2529476940298308,0.0425129562469744,-0.10036985935576184,0.008042604953598226
137,-4.526581743303699,0.22075411153055174,0.04050555905985916,-0.03962807335313436,0.015728456826136956
138,-4.522166661073088,0.29024793669877647,0.03971299759279648,-0.131877930677066,0.010764574408183266
139,-4.516361702339113,0.25273858723383646,0.03707543897925516,-0.06398571571498557,0.01001670811946016
140,-4.511306930594436,0.21309562530326365,0.035795724664955446,0.006335544324179196,0.03256512395508848
141,-4.507045018088371,0.36145971192574516,0.03592243555143903,-0.2055463271343076,0.03255717332398981
142,-4.499815823849857,0.4511427820726537,0.031811509008752875,-0.329425220175065,0.09998414357497007
143,-4.490792968208404,0.22706836690473167,0.025223004605251575,0.01586735542781703,0.007469546344304712
144,-4.486251600870309,0.2586969882582476,0.025540351713807915,-0.02414570872468226,0.011843358250463426
145,-4.481077661105144,0.3031831949617077,0.02505743753931427,-0.0833452087993799,0.005938011776576145
146,-4.4750139972059095,0.3221728540041463,0.023390533363326672,-0.10445463973272985,0.008429695560710987
147,-4.468570540125826,0.29593013444520433,0.021301440568672076,-0.058225138527514354,0.009899912947451418
148,-4.462651937436922,0.26269384045316335,0.020136937798121788,-0.0021198579466268352,0.028386748577700946
149,-4.457398060627859,0.367865268850505,0.02009454063918925,-0.15392515704391743,0.022509383442657974
150,-4.450040755250849,0.3067254345494059,0.017016037498310904,-0.05632652336470456,0.00042004000054376875
151,-4.443906246559861,0.3051342562893783,0.01588950703101681,-0.0489376278962084,0.007194911315297703
152,-4.437803561434073,0.28173358719781955,0.014910754473092643,-0.009169736758727787,0.030090928856369385
153,-4.432168889690117,0.3858737478273361,0.014727359737918087,-0.16097901349035457,0.0033481812335319997
154,-4.4244514147335705,0.3770342147830709,0.011507779468110995,-0.14339146459237292,0.025242807094589495
155,-4.416910730437909,0.3104030875496674,0.008639950176263537,-0.04006817909890714,0.026790407785044944
156,-4.410702668686915,0.22557933829109814,0.007838586594285395,0.08970280957787777,0.0006061436711574201
157,-4.406191081921094,0.22289202590164042,0.00963264278584295,0.09603817518334663,0.02514540231721574
158,-4.401733241403061,0.3307018805834553,0.011553406289509884,-0.0628371511339501,0.008305592849574361
159,-4.395119203791392,0.35525194625740913,0.010296663266830881,-0.09626316605944897,0.034533999474333804
160,-4.388014164866243,0.2590835790256964,0.008371399945641901,0.05100890344516994,0.02796489520158617
161,-4.382832493285729,0.36333412475970517,0.0093915780145453,-0.10290027291554278,0.009583500765304967
162,-4.375565810790535,0.38926817055337215,0.007333572556234444,-0.1390385427005925,0.02464798717218109
163,-4.3677804473794675,0.326369497291862,0.004552801702222595,-0.04253701887008353,0.0008877148720555656
164,-4.36125305743363,0.3289736510690777,0.003702061324820924,-0.04510468997549162,0.010215967866745177
165,-4.354673584412248,0.2984339546902149,0.0027999675253110915,0.0017929442206978188,0.0038077291595991
166,-4.348704905318444,0.31083823234597857,0.002835826409725048,-0.01599020995070329,0.020284520300075798
167,-4.3424881406715246,0.37461257730650566,0.0025160222107109822,-0.11081761089403475,0.029175360691176967
168,-4.334995889125395,0.2975590781195861,0.0002996699928302874,0.005501981803306369,0.012211359284775595
169,-4.329044707563003,0.337558658473943,0.0004097096288964148,-0.054409283057620696,0.017508491000020703
170,-4.322293534393524,0.2865763815725968,-0.0006784760322559992,0.022184580503434838,0.0011233307377109143
171,-4.316562006762072,0.2903969266948992,-0.00023478442218730246,0.016254292200834613,0.01119668492992945
172,-4.310754068228174,0.2528796701491817,9.030142182938982e-05,0.07246114884885374,0.00827506176855708
173,-4.305696474825191,0.2843930928498164,0.0015395243988064646,0.025217563608612048,0.015930986228478505
174,-4.3000086129681945,0.33880282179775006,0.0020438756709787054,-0.05594431310003613,0.021287549110675194
175,-4.29323255653224,0.4005362617687896,0.000924989408977983,-0.14794338061252466,0.06294422087452248
176,-4.285221831296864,0.2445880463134813,-0.00203387820327251,0.08625078934530236,0.0236461573034208
177,-4.280330070370595,0.3374486791159851,-0.0003088624163664628,-0.053637831538368125,0.0019014688689110064
178,-4.273581096788275,0.33191569603782517,-0.0013816190471338254,-0.04542916286596459,0.01065415749259393
179,-4.266942782867519,0.3004233810170964,-0.002290202304453117,0.0014030687084279833,0.005354075586043743
180,-4.260934315247177,0.31783961896288226,-0.0022621409302845574,-0.025394538587720245,0.01380708760819011
181,-4.254577522867919,0.36040742161328804,-0.0027700317020389626,-0.08991114805610317,0.01902493992727813
182,-4.247369374435653,0.30835665418213687,-0.004568254663161026,-0.012649684730212635,0.023417373288948717
183,-4.241202241352011,0.3826507018472358,-0.0048212483577652785,-0.12543265560034644,0.051759425091933015
184,-4.233549227315066,0.24875769267312997,-0.007329901469772207,0.07398708243885246,0.014043095626651346
185,-4.228574073461604,0.30320391998058915,-0.005850159820995158,-0.00983503632434983,0.011214532511916156
186,-4.222509995061992,0.26714997569587595,-0.0060468605474821545,0.04252501748600862,0.006296399773017295
187,-4.217166995548075,0.290065383105145,-0.005196360197761982,0.006374768621335521,0.020517920123266326
188,-4.211365687885972,0.2211986644725255,-0.005068864825335272,0.10814572888800558,0.02562614379568983
189,-4.206941714596521,0.33183956339768655,-0.00290595024757516,-0.05930372732650213,0.0009105369606964846
190,-4.200304923328567,0.33458013338927844,-0.004092024794105203,-0.06426891312710378,0.002870392852536918
191,-4.1936133206607815,0.34308235708155316,-0.005377403056647279,-0.07822519382249672,0.05072266825428626
192,-4.186751673519151,0.19741120023627953,-0.0069419069330972135,0.13869743335260765,0.008474533525299784
