,X,v,theta,theta_dot,energy
0,0.0,-2.0,0.5235987755982988,0.0,1.0880623035167958
1,-0.04,-1.4848710128742333,0.5235987755982988,-0.5221721836149914,0.5771010739575928
2,-0.06969742025748467,-1.1235750455735753,0.5131553319259989,-0.8445094125658539,0.5194293832417283
3,-0.09216892116895617,-0.6989270719016194,0.4962651436746819,-1.2551062483949444,0.11174685465108425
4,-0.10614746260698855,-0.561015779819032,0.471163018706783,-1.2970317118703332,0.03602784442530262
5,-0.11736777820336919,-0.5095902445531811,0.44522238446937634,-1.23231177061939,0.07992140672768297
6,-0.1275595830944328,-0.6517250824905576,0.42057614905698854,-0.9132799263544342,0.14365117533150426
7,-0.14059408474424395,-0.4559467882360295,0.40231055052989984,-1.0613191637403847,0.05239027626622754
8,-0.14971302050896454,-0.3596478891259232,0.38108416725509214,-1.079120213001123,0.05801622034450161
9,-0.156905978291483,-0.5023595131125285,0.3595017629950697,-0.7710629962083507,0.13080386856288845
10,-0.16695316855373357,-0.2705639168066778,0.34408050307090265,-0.9930976050835097,0.041457902559526826
11,-0.17236444688986713,-0.14668774009634652,0.32421855096923247,-1.0688451793490508,0.02307189326509486
12,-0.17529820169179405,-0.26646082441356217,0.30284164738225144,-0.8048867910716688,0.03215422082839102
13,-0.1806274181800653,-0.1669450665117527,0.2867439115608181,-0.8596866936102441,0.010324478316538982
14,-0.18396631951030037,-0.21957407821967154,0.2695501776886132,-0.7008142564894504,0.0075916834295027165
15,-0.1883578010746938,-0.2525427507164295,0.2555338925588242,-0.5748553793712691,0.03321721141264743
16,-0.19340865608902238,-0.13986508715502183,0.2440367849713988,-0.6640716249285377,0.020051024509148464
17,-0.19620595783212283,-0.02798936904467146,0.23075535247282805,-0.7558761732861775,0.0008355648465717756
18,-0.19676574521301626,-0.044248947136617575,0.2156378290071045,-0.6648916744085805,0.002336487195673325
19,-0.1976507241557486,-0.016365761240489884,0.20233999551893286,-0.642840460788451,0.0018714968905002394
20,-0.1979780393805584,-0.0595309473134307,0.18948318630316385,-0.5203307324528783,0.0014740898335227335
21,-0.19916865832682704,-0.04479970365700023,0.1790765716541063,-0.4866568029829226,0.0015142108829971838
22,-0.20006465239996704,-0.025131694282535925,0.16934343559444784,-0.46331946787548534,0.0072794912473014405
23,-0.20056728628561776,0.12690942572762645,0.16007704623693814,-0.6385695174982778,0.0012349195691552892
24,-0.19802909777106523,0.11247734167005032,0.1473056558869726,-0.5703362477063756,0.007665716220963091
25,-0.19577955093766422,0.024432352055802575,0.13589893093284508,-0.39654762737204863,0.0004153813839324877
26,-0.19529090389654816,0.0841846457643602,0.1279679783854041,-0.44551827218620804,0.005627368462679103
27,-0.19360721098126096,-0.003166885294550642,0.11905761294167995,-0.2780423646339871,4.993231227050684e-06
28,-0.19367054868715197,-0.004537990488906105,0.11349676564900021,-0.24107996188956782,0.0019327467566197692
29,-0.1937613084969301,0.11595646283874309,0.10867516641120886,-0.38736232085034655,0.0001963834386842626
30,-0.19144217924015525,0.11248282715253888,0.10092791999420193,-0.3502949602726716,0.011510156307504892
31,-0.18919252269710446,-0.00505889042878549,0.0939220207887485,-0.14525716366726163,0.0021145652601526357
32,-0.18929370050568017,0.17082603084217393,0.09101687751540327,-0.38034924983063223,0.009990164166430138
33,-0.1858771798888367,0.10612737622354235,0.08340989251879062,-0.25698093495225927,0.004276478115652292
34,-0.18375463236436584,0.14907744045292906,0.07827027381974544,-0.29668796814713116,0.003998456568698116
35,-0.18077308355530727,0.11921797059865478,0.07233651445680282,-0.22904791586000633,0.005137431689725774
36,-0.17838872414333418,0.0721521501937043,0.0677555561396027,-0.13738541786298045,0.0003484618817870591
37,-0.1769456811394601,0.0763403650424186,0.06500784778234309,-0.12374842976714967,0.005073060954024499
38,-0.17541887383861174,0.14536837691070734,0.0625328791870001,-0.20797289068231437,0.0047693813162403495
39,-0.1725115063003976,0.11025590063028667,0.05837342137335381,-0.13703443250951472,0.0066822420360897455
40,-0.17030638828779188,0.17206911171919934,0.05563273272316351,-0.21244428342637245,0.013979888059048094
41,-0.1668650060534079,0.08732469365114813,0.05138384705463606,-0.06917673089331261,0.0006856828691452505
42,-0.16511851218038492,0.09453427692789419,0.05000031243676981,-0.06487662821125988,0.0020098901896246604
43,-0.16322782664182703,0.07241319322019325,0.048702779872544615,-0.017042504052283344,0.004961139735760989
44,-0.16177956277742317,0.13926669441566403,0.04836192979149895,-0.10289089151957956,0.0030414601414527425
45,-0.15899422888910988,0.11653261802754615,0.046304111961107355,-0.054616782817922066,0.0016652818467079039
46,-0.15666357652855897,0.1301123757890759,0.045211776304748916,-0.06135604163753647,0.002928561337076557
47,-0.15406132901277744,0.15190123275045622,0.04398465547199819,-0.08071819450661497,0.006456960715709684
48,-0.1510233043577683,0.19376194752552417,0.042370291581865886,-0.13052121762826674,0.004464218531507358
49,-0.14714806540725783,0.2163398924457135,0.039759867229300555,-0.1519046010275482,0.014160681417043483
50,-0.14282126755834357,0.28172659584725684,0.03672177520874959,-0.23822082021004076,0.00660298118445619
51,-0.13718673564139844,0.2574255277022371,0.03195735880454878,-0.1910000168701998,0.023876188639394568
52,-0.1320382250873537,0.16333120828307704,0.028137358467144782,-0.04053673923507031,0.012535864696325913
53,-0.12877160092169215,0.23865682175516614,0.027326623682443377,-0.145209143433289,0.02489684080878511
54,-0.12399846448658883,0.13360130800674241,0.024422440813777598,0.020348321147051096,0.015042961759158804
55,-0.12132643832645398,0.2423411018008616,0.024829407236718618,-0.13553324427410168,0.0005671512782558484
56,-0.11647961629043675,0.24432827387767556,0.022118742351236585,-0.1312139879264167,0.008320857590438437
57,-0.11159305081288325,0.20995617167026645,0.01949446259270825,-0.07316606620642302,0.02683637418740932
58,-0.10739392737947792,0.08297217499256782,0.01803114126857979,0.12300474526207975,0.013486998460815107
59,-0.10573448387962657,0.23128434482206203,0.020491236173821387,-0.09412647750998321,0.012441962911335057
60,-0.10110879698318533,0.2844610918769053,0.018608706623621723,-0.16785085051566104,0.0029615281863862395
61,-0.09541957514564722,0.2737580821019023,0.015251689613308502,-0.1463284714815423,0.029594711226006792
62,-0.08994441350360918,0.16544687455858695,0.012325120183677655,0.020603267077602877,0.004520302198732885
63,-0.08663547601243744,0.19177521172951034,0.012737185525229712,-0.015262745498960728,0.03941391554163607
64,-0.08279997177784723,0.39282682140437986,0.012431930615250497,-0.31307106571087306,0.009490116531660653
65,-0.07494343534975964,0.3681948521752506,0.0061705093010330355,-0.2724710735836357,0.018415312992889038
66,-0.06757953830625463,0.31761324692959436,0.0007210878293603213,-0.1947859919162478,0.048520757286687435
67,-0.06122727336766274,0.16428830684411946,-0.0031746320089646347,0.03541335822241945,0.013556925053802897
68,-0.05794150723078035,0.24405907309065403,-0.0024663648445162455,-0.08517552842618659,0.02602780908703053
69,-0.05306032576896727,0.1383729594124095,-0.004169875413039977,0.07262804939932466,0.008204949230190318
70,-0.05029286658071908,0.19493432927329066,-0.002717314425053484,-0.013439207600821082,0.001822107827679646
71,-0.04639417999525327,0.2041212686806327,-0.0029860985770699057,-0.028018455293814203,0.02731338294737413
72,-0.042311754621640614,0.07279861593966594,-0.00354646768294619,0.16808673390945622,0.007219897082830924
73,-0.040855782302847296,0.16041640127894372,-0.00018473300475706526,0.03561822309167351,0.02374998707151856
74,-0.03764745427726842,0.3034169196659263,0.0005276314570764049,-0.178936862331833,0.009307771879890474
75,-0.03157911588394989,0.27265670292881816,-0.003051105789560255,-0.1326414200076046,0.00016046249702829937
76,-0.026125981825373526,0.27211326404319325,-0.005703934189712347,-0.13272328918377926,0.021695909153738792
77,-0.02068371654450966,0.19264503238990527,-0.008358399973387932,-0.015199828373276172,0.002217986279752615
78,-0.016830815896711555,0.18149200638659266,-0.008662396540853455,-0.0009282147306784224,0.029502618093580756
79,-0.013200975768979701,0.022988992825322185,-0.008680960835467023,0.2342706727274328,0.005197333835358726
80,-0.012741195912473257,0.17385404385587092,-0.0039955473809183675,0.005429452486290037,0.007013211572646205
81,-0.00926411503535584,0.2132112698735737,-0.0038869583311925667,-0.054780603109503445,0.02070854694238983
82,-0.0049998896378843655,0.11738945822554511,-0.004982570393382636,0.08780826570316941,0.024782658723202906
83,-0.0026521004733734634,0.31665365530170864,-0.0032264050793192477,-0.2125491893523725,0.001707371091157392
84,0.003680972632660709,0.32212573671481864,-0.007477388866366697,-0.22170583019768508,0.025079481538520045
85,0.010123487366957081,0.24382276802358033,-0.011911505470320398,-0.10645299250500484,0.022575754092490786
86,0.014999942727428689,0.15183304761717897,-0.014040565320420495,0.028019899524468678,0.0010893915650849525
87,0.018036603679772268,0.14509276193289253,-0.013480167329931122,0.0340015409177144,0.019753453993789062
88,0.020938458918430117,0.27670755114890977,-0.012800136511576833,-0.1673657550688941,0.05663359184364729
89,0.026472609941408314,0.07157134294579806,-0.016147451612954715,0.13655021253350472,0.010685308890761793
90,0.027904036800324276,0.2058322694058351,-0.01341644736228462,-0.06956206678476984,0.03335295164772229
91,0.03202068218844098,0.04547330338452263,-0.014807688697980017,0.16701041679223622,0.005636164047538499
92,0.032930148256131435,0.14930737642851444,-0.011467480362135293,0.006923081120261548,0.0060540694872960234
93,0.03591629578470172,0.10999666904992225,-0.011329018739730062,0.06251389978605332,0.006631721750987205
94,0.03811622916570016,0.16749711881683588,-0.010078740744008996,-0.027061900192158553,0.006957446096698054
95,0.041466171542036884,0.12681756239222178,-0.010619978747852168,0.03099123565565802,0.0026317823350003283
96,0.04400252278988132,0.14699361380111073,-0.010000154034739007,-0.00239334988446252,0.003526823444466926
97,0.04694239506590354,0.1705620278596495,-0.010048021032428259,-0.04068419958568559,0.03551463279524706
98,0.050353635623096527,-0.03466157789190091,-0.01086170502414197,0.2641816007467956,0.005652971605058574
99,0.049660404065258505,0.20894312743123428,-0.005578073009206059,-0.10439718118960234,0.029415786292219505
100,0.05383926661388319,0.06848165021105729,-0.007666016632998106,0.10465181185548533,0.007940338287718235
101,0.05520889961810434,0.17436434253237046,-0.005572980395888398,-0.05642134659373074,0.00021734178554320543
102,0.05869618646875174,0.17567847711224216,-0.006701407327763013,-0.06003096560789335,0.009510526724371382
103,0.062209756010996584,0.22942323768674763,-0.00790202663992088,-0.14261649527219264,0.03515291108588335
104,0.06679822076473153,0.07570478580177245,-0.010754356545364732,0.0856308120694621,0.007939671877593625
105,0.06831231648076698,0.17317371628349898,-0.00904174030397549,-0.06372584894924863,0.02412889806364472
106,0.07177579080643696,0.035056742494725956,-0.010316257282960463,0.14078290774766483,0.0044596125153684805
107,0.07247692565633149,0.1401552233972566,-0.007500599128007166,-0.01988935068212125,0.0033634025041196945
108,0.07528003012427661,0.11669850102374335,-0.007898386141649592,0.013089587677341724,0.01416528238424465
109,0.07761400014475148,0.23463354671388403,-0.007636594388102757,-0.1661295642787023,0.033672764011837705
110,0.08230667107902916,0.09007590924173292,-0.010959185673676803,0.04845543234409669,0.0052950476882985
111,0.08410818926386382,0.14621428970475006,-0.00999007702679487,-0.03896901767122729,0.004406101279752818
112,0.08703247505795882,0.11659768545624496,-0.010769457380219416,0.0025166380888885717,0.003758643667226616
113,0.08936442876708371,0.08533345007597679,-0.010719124618441645,0.04624411237117747,0.0006389301546337973
114,0.09107109776860325,0.07835797490710049,-0.009794242371018096,0.05355536173197897,0.014242551605947876
115,0.09263825726674527,0.25048373335366175,-0.008723135136378516,-0.20750035360255917,0.04866208342868825
116,0.0976479319338185,0.05365987927780519,-0.0128731422084297,0.08515962567604665,0.0024886760196473037
117,0.0987211295193746,0.011641598544836596,-0.011169949694908766,0.14439722518712317,0.002250519204033593
118,0.09895396149027133,0.13240759536447114,-0.008282005191166304,-0.0400243663030691,0.0012403645596846817
119,0.10160211339756076,0.1417929172406297,-0.009082492517227685,-0.05653674799488435,0.0002588616687522086
120,0.10443797174237335,0.1401091688317862,-0.010213227477125372,-0.05668144564026441,0.008608289650318422
121,0.10724015511900907,0.07919189501944723,-0.01134685638993066,0.03168706273154498,0.0011266237987024265
122,0.10882399301939802,0.09298607385582776,-0.01071311513529976,0.0076612222809925926,0.006052891604460686
123,0.11068371449651457,0.02987023719219492,-0.010559890689679908,0.09917994883338563,0.003414704201624093
124,0.11128111924035847,0.12692572644383993,-0.008576291713012194,-0.049499718195586434,0.0032757221466777446
125,0.11381963376923526,0.1526816443914598,-0.009566286076923922,-0.09065357316525349,0.011527535372276772
126,0.11687326665706446,0.07711731658095748,-0.011379357540228993,0.019875286994418567,0.011207587051017662
127,0.11841561298868361,0.21742445560284862,-0.010981851800340621,-0.1939172543455213,0.021752436088546434
128,0.12276410210074058,0.11585283853964483,-0.014860196887251046,-0.044797615425540366,0.0014887299508658698
129,0.12508115887153348,0.1288267113212805,-0.015756149195761855,-0.0686250130092008,0.003999533486100425
130,0.1276576930979591,0.1600921057590686,-0.01712864945594587,-0.12014939961380436,0.015180584094629553
131,0.13085953521314048,0.06456143552853633,-0.019531637448221957,0.018090008693352505,0.0006395680082497835
132,0.1321507639237112,0.07438440316163075,-0.019169837274354905,-0.0023835686771148286,0.0009431716290988392
133,0.13363845198694382,0.0870473945584686,-0.019217508647897202,-0.0270101527873613,0.01569956417669492
134,0.1353793998781132,-0.09114659246523427,-0.019757711703644428,0.23458187251580398,0.01537719331435091
135,0.13355646802880852,0.09552608102691737,-0.015066074253328348,-0.051180875660510716,0.0011494262201322285
136,0.13546698964934686,0.10777397777004294,-0.01608969176653856,-0.0739798939957043,0.008538611621511902
137,0.13762246920474772,0.02822241884104819,-0.017569289646452647,0.04060183382506692,0.0006234410702465443
138,0.13818691758156867,0.0487027126583018,-0.016757252969951307,0.00472102895001994,0.00460217754364339
139,0.13916097183473472,-0.042841297831405584,-0.01666283239095091,0.13709136378216885,0.007331758968701333
140,0.1383041458781066,0.15277215176834671,-0.013921005115307533,-0.16118672353744073,0.003425147389028475
141,0.14135958891347353,0.1299969028926864,-0.01714473958605635,-0.13111980376933963,0.00977952081963869
142,0.14395952697132725,0.05332410783763056,-0.01976713566144314,-0.02116782029770714,0.0022046049141028774
143,0.14502600912807986,0.09468247531115237,-0.020190492067397283,-0.0890044110625233,0.025916874347889064
144,0.14691965863430292,-0.18398492415284384,-0.021970580288647748,0.3229758893379604,0.036042161607775
145,0.14323996015124604,0.02400903058636683,-0.01551106250188854,0.004601423254007586,0.0009629107734693596
146,0.14372014076297338,-0.014557986318178194,-0.015419034036808388,0.057884920015985546,0.0007805464750021199
147,0.1434289810366098,0.049508646853414516,-0.014261335636488678,-0.04273662263268869,0.002806394854131182
148,0.1444191539736781,-0.007846674681923696,-0.015116068089142452,0.0390949203281473,3.293971010035494e-05
149,0.14426222048003964,-0.002335600022426299,-0.014334169682579506,0.02638529798639022,3.576152950598841e-05
150,0.1442155084795911,0.02857141952347915,-0.013806463722851702,-0.02418457017407194,0.002302507556032332
151,0.1447869368700607,-0.05299745454929289,-0.01429015512633314,0.09409810834246121,0.006871857022910175
152,0.14372698777907483,0.08481121726127322,-0.012408192959483916,-0.11679495607066737,0.008483423467120912
153,0.1454232121243003,-0.01911317057309722,-0.014744092080897263,0.035431710311353254,0.00020944515299294234
154,0.14504094871283835,-0.007227443286022315,-0.014035457874670199,0.013270451189674556,0.00064564508151391
155,0.1448963998471179,-0.10211376552278106,-0.013770048850876708,0.15145962660600926,0.015260255267872643
156,0.1428541245366623,0.054419473752089886,-0.010740856318756523,-0.08736623838350882,0.007641356292513154
157,0.1439425140117041,-0.09319929606513461,-0.0124881810864267,0.13089139278477005,0.01069053222615359
158,0.14207852809040142,0.02651723467705336,-0.009870353230731299,-0.05234083055498068,0.0008584041906608823
159,0.1426088727839425,-0.008035645472445764,-0.010917169841830911,-0.0034158717480584633,9.262216428203418e-05
160,0.14244815987449358,0.00315293997439341,-0.010985487276792081,-0.023407333975074066,0.00014140359490278083
161,0.14251121867398145,0.06934735369125537,-0.011453633956293563,-0.12592263160659473,0.009754959938564295
162,0.14389816574780656,-0.08006944640611001,-0.013972086588425458,0.09482057292756024,0.0027958287920103317
163,0.14229677681968436,-0.04386596280740541,-0.012075675129874253,0.036412988349757765,0.001263347430871891
164,0.14141945756353624,-0.014493726194347644,-0.011347415362879098,-0.011192316476492242,0.0005769157076401577
165,0.1411295830396493,0.023185528143817653,-0.011571261692408942,-0.07104362775025516,0.0012120806917798757
166,0.14159329360252565,-0.03590273639344031,-0.012992134247414045,0.014180960423245834,0.001364586955396465
167,0.14087523887465683,-0.07347468639276884,-0.012708515038949129,0.0667145489936686,0.009864248228609993
168,0.13940574514680146,0.06332321585519506,-0.011374224059075757,-0.1422019371528948,0.0018880340001335707
169,0.14067220946390535,0.03109133705541315,-0.014218262802133654,-0.09720119613948558,0.001162581137257551
170,0.1412940362050136,0.07381683824989002,-0.016162286724923366,-0.1654629984540913,0.011211681781893412
171,0.1427703729700114,-0.09093697933924808,-0.019471546694005193,0.07688394552184333,0.0038186062198048557
172,0.14095163338322644,-0.13326135130670017,-0.017933867783568327,0.13463419567644005,0.013493802540777792
173,0.13828640635709244,-0.029464175026323328,-0.015241183870039527,-0.026308806201085666,0.001691178079522767
174,0.13769712285656596,-0.0830586849912592,-0.01576735999406124,0.04959288709867471,0.0005902708946767312
175,0.13603594915674078,-0.08995924506062837,-0.014775502252087748,0.05530702880538871,0.004282129145358247
176,0.13423676425552822,-0.04197345785358675,-0.013669361675979973,-0.021007634721991075,0.0017861967460853839
177,0.1333972950984565,-0.08237092694284034,-0.014089514370419795,0.035564240574778694,0.0005687792973017534
178,0.1317498765595997,-0.08904033396142776,-0.013378229558924221,0.04142517796436078,0.008724585840348797
179,0.12996906988037113,-0.18650708906289226,-0.012549725999637006,0.18367914541322622,3.154461610962096e-05
180,0.12623892809911327,-0.18650028040164854,-0.008876143091372482,0.17997941063076353,0.025511589037606804
181,0.12250892249108031,-0.04679685592960822,-0.005276554878757211,-0.032177022937337485,0.0037538028229701635
182,0.12157298537248815,-0.12260769711668909,-0.005920095337503961,0.07998635586531751,0.010087190933813482
183,0.11912083143015437,-0.039804740091782864,-0.004320368220197611,-0.04595640101162564,0.003188906370619361
184,0.11832473662831872,-0.11400522272133994,-0.0052394962404301235,0.06407309988268087,0.00022590145737662884
185,0.11604463217389192,-0.11194625597964349,-0.003958034242776506,0.05944428731588505,0.008778840882210396
186,0.11380570705429906,-0.03348984781099927,-0.0027691484964588054,-0.059403062141703725,0.00578890452459048
