,X,v,theta,theta_dot,energy
0,0.0,-2.0,0.6981317007977318,0.0,1.042226293382214
1,-0.04,-1.5133706763675279,0.6981317007977318,-0.37018997659326053,0.8298908422757242
2,-0.07026741352735055,-1.0052431014781558,0.6907279012658666,-0.7650828770547067,0.48795159347111544
3,-0.09037227555691367,-0.5638391090126078,0.6754262437247724,-1.0881156384835255,0.27653663053323824
4,-0.10164905773716583,-0.13480227544167606,0.6536639309551019,-1.4065546045600095,0.0705872918952328
5,-0.10434510324599935,0.2199025191080926,0.6255328388639017,-1.650152966359736,0.04720964645008511
6,-0.0999470528638375,0.49846272191561986,0.5925297795367069,-1.8167301129123485,0.048150938987195295
7,-0.0899777984255251,0.6007499361483233,0.5561951772784599,-1.7798180335708362,0.07947959305049891
8,-0.07796279970255864,0.7390764659753188,0.5205988166070432,-1.8008130410599001,0.03093708769036382
9,-0.06318127038305225,0.7789671959183632,0.4845825557858452,-1.7064866232190203,0.016067767534810897
10,-0.04760192646468499,0.7961927052471045,0.4504528233214648,-1.5923934438279561,0.04148680638677306
11,-0.0316780723597429,0.8463570393573411,0.4186049544449057,-1.5321343795891418,0.06460796245167173
12,-0.014750931572596073,0.9216241793161283,0.38796226685312285,-1.5157799325200598,0.028442986419145302
13,0.0036815520137264933,0.9495199846667116,0.3576466682027217,-1.4432928387444302,0.012603037850315383
14,0.022671951707060725,0.9318367098742595,0.32878081142783305,-1.3155255262879786,0.02071713071897893
15,0.041308685904545915,0.950952735023367,0.3024703009020735,-1.2477342093627763,0.02268244832391452
16,0.06032774060501325,0.9228286171668275,0.27751561671481795,-1.119886629473843,0.022960574028379734
17,0.07878431294834981,0.9449019833556347,0.2551178841253411,-1.071183509232772,0.021245314777029244
18,0.0976823526154625,0.9187142621833738,0.23369421394068565,-0.9589796458665203,0.060782421859146736
19,0.11605663785912998,0.9831158822219256,0.21451462102335525,-0.9848737555493071,0.1362039353625753
20,0.1357189555035685,0.8393396325780547,0.1948171459123691,-0.711567723840466,0.004628983326315743
21,0.1525057481551296,0.8422955784759274,0.18058579143555978,-0.6590031465321959,0.10877050023812011
22,0.16935165972464816,0.97009518202503,0.16740572850491586,-0.7947811349848432,0.03823224960009082
23,0.18875356336514876,1.007682498363881,0.151510105805219,-0.8013862004748334,0.10793976143495988
24,0.20890721333242637,1.1138421494821105,0.13548238179572233,-0.9144277283325575,0.10128865143800383
25,0.2311840563220686,1.0200294360461863,0.11719382722907118,-0.7352880899476537,0.0014054393680896081
26,0.2515846450429923,1.0170392280283624,0.1024880654301181,-0.6964573745727909,0.08883975280086767
27,0.2719254296035596,0.9277506739102537,0.08855891793866227,-0.5331485602634615,0.11793017080512658
28,0.2904804430817647,1.0537678171706926,0.07789594673339305,-0.6954312224005916,0.006614937406965807
29,0.3115557994251785,1.0590027959328023,0.06398732228538122,-0.6803816238160185,0.0719156625826457
30,0.3327358553438346,0.9898950152437309,0.05037968980906085,-0.5581326574315826,0.03288153274415756
31,0.3525337556487092,1.022441512292441,0.0392170366604292,-0.5920850970879556,0.036469239400485035
32,0.372982585894558,0.9861581383374407,0.02737533471867009,-0.5261750294322454,0.0206825249263496
33,0.3927057486613068,0.9648045526705528,0.01685183413002518,-0.48610930891434556,0.030004516271043526
34,0.4120018397147179,0.9335158161802265,0.007129647951738269,-0.4342286634135277,0.02066894208366956
35,0.43067215603832243,0.9554823212903187,-0.0015549253165322852,-0.4650814848935519,0.07663961586394874
36,0.4497818024641288,0.8754797594908534,-0.010856555014403323,-0.34553493512538025,0.08294919275626396
37,0.4672913976539459,0.7815103462339014,-0.017767253716910927,-0.20778088639593842,0.04814521375194297
38,0.48292160457862393,0.7209278957611305,-0.021922871444829694,-0.12214485136873063,0.06800335960828788
39,0.49734016249384655,0.6285042267445504,-0.024365768472204306,0.010012530593326102,0.05408643571502949
40,0.5099102470287376,0.712746016539296,-0.024165517860337785,-0.12347547291199243,0.029920581240514714
41,0.5241651673595235,0.6718134655098082,-0.026635027318577635,-0.06919854388441621,0.07288143617810779
42,0.5376014366697196,0.7785259454533241,-0.028018998196265958,-0.23704026098881353,0.006154515519350216
43,0.5531719555787861,0.7711057421118573,-0.03275980341604223,-0.23415083236614545,0.10116194428801716
44,0.5685940704210232,0.9013444361743255,-0.03744282006336514,-0.4390337128048809,0.023903655737856824
45,0.5866209591445096,0.8754180814126459,-0.04622349431946276,-0.41117705545139216,0.05974791517129573
46,0.6041293207727625,0.8080461664426541,-0.0544470354284906,-0.3238119930040318,0.12173268931038529
47,0.6202902441016156,0.6591536646533256,-0.060923275288571235,-0.11680372078204629,0.0238408070795227
48,0.6334733173946822,0.6244612104418857,-0.06325934970421217,-0.08276194900223355,0.05481402741527475
49,0.6459625416035198,0.5392353875402882,-0.06491458868425684,0.02623523455803077,0.009491386557509142
50,0.6567472493543256,0.5572925863030197,-0.06438988399309623,-0.019865003398282982,0.03337434770739367
51,0.667893101080386,0.4997103469288909,-0.06478718406106189,0.04741181571397034,0.026503071789322232
52,0.6778873080189638,0.44913071288001255,-0.06383894774678248,0.10408798601781014,0.024635908814370097
53,0.6868699222765641,0.39710080358819877,-0.061757188026426275,0.16321796659347929,0.05020113795318145
54,0.694811938348328,0.51902639628834,-0.05849282869455669,-0.03746684375635417,0.0861105338479696
55,0.7051924662740948,0.3575104680563562,-0.05924216556968377,0.1872056204253413,0.02659751253056863
56,0.7123426756352219,0.28747682310630357,-0.055498053161176945,0.2746647869365837,0.00028709689093805313
57,0.718092212097348,0.28733324071497257,-0.05000475742244527,0.25857177586892405,0.006949459606379888
58,0.7238388769116474,0.31071155066887884,-0.04483332190506679,0.2088528717766717,0.030667282874104577
59,0.730053107925025,0.4047784617320477,-0.040656264469533354,0.05471770779504942,0.009481947535659447
60,0.7381486771596659,0.3826492134812286,-0.03956191031363237,0.07593450121910097,0.0020239366220936644
61,0.7458016614292905,0.37810212411917227,-0.03804322028925035,0.07112163053460895,0.010118046395165739
62,0.753363703911674,0.3527634594804658,-0.03662078767855817,0.09792011752964026,0.0029200619216775544
63,0.7604189731012833,0.3612622305149375,-0.03466238532796537,0.07441640290866462,0.010936309021121566
64,0.767644217711582,0.33250095265693613,-0.03317405726979208,0.10734370444933393,0.030078816344663358
65,0.7742942367647208,0.41994917393511316,-0.0310271831808054,-0.03350783933795505,0.006770351331561733
66,0.782693220243423,0.4361785303012123,-0.0316973399675645,-0.06696068531848087,0.021575440655291322
67,0.7914167908494473,0.485226247696594,-0.03303655367393411,-0.14981276256503717,0.011758048785296045
68,0.8011213158033792,0.46172348093153265,-0.036032808925234854,-0.12428882920756859,0.029518825180812745
69,0.8103557854220098,0.399100609969521,-0.03851858550938622,-0.04100685016852404,0.013282582847124273
70,0.8183377976214002,0.3670341014721476,-0.039338722512756705,-0.004264429404589126,0.030829260757883635
71,0.8256784796508432,0.285616680771815,-0.039424011100848484,0.10620461497028524,0.02839617886979008
72,0.8313908132662795,0.1908071365617166,-0.03729991880144278,0.23672077008191564,0.004031947679059014
73,0.8352069559975138,0.21085325462289517,-0.03256550339980447,0.1957088744863367,0.0073095906433100245
74,0.8394240210899717,0.1788685662331398,-0.028651325910077734,0.23408790338950974,0.0005474067467500865
75,0.8430013924146346,0.18209567444304076,-0.02396956784228754,0.22082689039169948,0.006012804515341866
76,0.8466433059034953,0.15190737384358852,-0.01955303003445355,0.25904995545737564,0.0025411450675817933
77,0.8496814533803672,0.16733236791215733,-0.014372030925306038,0.2301686626518038,0.01210167908918623
78,0.8530281007386104,0.2339423701554409,-0.009768657672269962,0.1260387464634314,0.026244690787648326
79,0.8577069481417192,0.3409136570138942,-0.007247882743001334,-0.03728246762817497,0.005217222853252389
80,0.864525221281997,0.3260126710256935,-0.007993532095564833,-0.017062434595081076,0.005999149367486937
81,0.8710454747025109,0.3441227919126518,-0.008334780787466455,-0.0465768214583603,0.004758007324209513
82,0.877927930540764,0.3306696205039274,-0.00926631721663366,-0.02884816245101207,0.01183795096851478
83,0.8845413229508425,0.3658680905473783,-0.009843280465653902,-0.08436785907963631,0.03432317349590283
84,0.8918586847617901,0.27351554478692974,-0.011530637647246628,0.05126037084981627,0.005857238112437286
85,0.8973289956575287,0.2529651932876565,-0.010505430230250303,0.07869391655941729,0.01723563687979702
86,0.9023882995232818,0.18757049670726808,-0.008931551899061956,0.17369200888507738,0.013446804745082442
87,0.9061397094574272,0.12058281390666759,-0.0054577117213604085,0.2715436839291391,0.006090049944900974
88,0.9085513657355605,0.16535860385536344,-2.6838042777626442e-05,0.20277644001277967,0.0022496174395087182
89,0.9118585378126678,0.15278708368567942,0.004028690757477967,0.22162582987593876,0.004185713715388347
90,0.9149142794863814,0.17780378947643138,0.008461207354996742,0.1852855075905377,0.041333806110413096
91,0.91847035527591,0.39422382539900025,0.012166917506807496,-0.1368453606199006,0.012481749784944608
92,0.92635483178389,0.4254337544188074,0.009430010294409484,-0.18007980360418435,0.0041083324545064925
93,0.9348635068722662,0.4349048539903572,0.005828414222325797,-0.1915134393652982,0.007605320719171509
94,0.9435616039520733,0.41741225416155264,0.0019981454350198333,-0.16356144121425936,0.03456588447385484
95,0.9519098490353044,0.3351284269352204,-0.0012730833892653538,-0.039548492401585394,0.0266751652103687
96,0.9586124175740088,0.2570724374677026,-0.002064053237297062,0.07716111050293839,0.024273874727453473
97,0.9637538663233629,0.3479833084568599,-0.0005208310272382941,-0.059811736720020964,0.021833325336109936
98,0.9707135324925001,0.28629662923104987,-0.0017170657616387135,0.032565145253533254,0.012660027769970304
99,0.9764394650771211,0.32924077011740666,-0.0010657628565680483,-0.03235578820225145,0.008428400537837414
100,0.9830242804794692,0.35434324309430804,-0.0017128786206130771,-0.07032281050362799,0.026447815262471416
101,0.9901111453413554,0.28088644497481463,-0.003119334830685637,0.03935863896833691,0.02418076564235225
102,0.9957288742408517,0.36438720811136294,-0.002332162051318899,-0.08680897932749651,0.009368140504268657
103,1.0030166184030789,0.33906381982617945,-0.0040683416378688286,-0.049509655221266526,0.0013402000788444188
104,1.0097978947996025,0.3430041583728265,-0.005058534742294159,-0.05661620326973877,0.01549971780187023
105,1.016657977967059,0.3874958483721817,-0.0061908588076889344,-0.12484008727635015,0.00923513124063218
106,1.0244078949345026,0.4111815847674218,-0.008687660553215938,-0.16218811188670643,0.012126537732091793
107,1.032631526629851,0.38200823667947664,-0.011931422790950066,-0.12098388122121234,0.020527097892909334
108,1.0402716913634404,0.4353683395523464,-0.014351100415374313,-0.20452609345844483,0.026559802802057927
109,1.0489790581544873,0.49638850576486,-0.01844162228454321,-0.3002659961205868,0.018100954817908247
110,1.0589068282697844,0.46007071208532346,-0.024446942206954946,-0.2512200985561043,0.02735589657872764
111,1.068108242511491,0.4009363875400442,-0.029471344178077032,-0.16973180187381592,0.052778212205072096
112,1.0761269702622918,0.27042106050693326,-0.03286598021555335,0.01729285356387472,0.018263465274974595
113,1.0815353914724304,0.20519818463677075,-0.03252012314427585,0.10541347441834521,0.01242497278769502
114,1.0856393551651657,0.1479413844682403,-0.030411853655908948,0.18169403327650555,0.009273117249466419
115,1.0885981828545306,0.09046002199841105,-0.02677797299037884,0.2589365006971741,0.0008280779525566094
116,1.0904073832944987,0.08293965727934216,-0.021599242976435357,0.26234122037995344,0.008691687640251638
117,1.0920661764400856,0.1726345192611877,-0.016352418568836288,0.12148062632182977,0.00047553868845404704
118,1.0955188668253093,0.1754728314083156,-0.013922806042399693,0.11241633051371941,0.008139476267523343
119,1.0990283234534757,0.13169876996705898,-0.011674479432125304,0.17397788602307546,0.007813816939579872
120,1.1016622988528169,0.07726120328173286,-0.008194921711663795,0.25219645251365336,0.0009677169617075542
121,1.1032075229184515,0.06673730303282968,-0.003150992661390728,0.2655724928103834,0.013382915704498104
122,1.104542268979108,0.23245539384715894,0.0021604571948169405,0.016070200309116378,0.0019490980992482366
123,1.1091913768560513,0.2405791009505226,0.002481861200999268,0.004519842013726277,0.019534399680865414
124,1.1140029588750617,0.31969286937572744,0.002572258041273794,-0.11342077869630116,7.499925600763637e-05
125,1.1203968162625764,0.3198886391533381,0.00030384246734777064,-0.11295818936104754,0.025083791514170402
126,1.1267945890456432,0.24213474865693746,-0.0019553213198731803,0.003761970683885521,0.0011081600274870436
127,1.131637284018782,0.23770094272337372,-0.0018800819061954698,0.00983780276873781,0.00647126504389162
128,1.1363913028732495,0.2642384143356144,-0.0016833258508207136,-0.030521078052774604,0.0185850724989175
129,1.1416760711599618,0.3332437177321987,-0.0022937474118762055,-0.13452378406476231,0.0017975578967613793
130,1.1483409455146059,0.33863749808018606,-0.004984223093171452,-0.1432887944508803,0.01800373880301872
131,1.1551136954762096,0.28582331380211556,-0.007849998982189058,-0.065533857580416,0.003486241384784567
132,1.1608301617522518,0.2979608188702925,-0.009160676133797377,-0.08604743022590419,0.04191554269752226
133,1.1667893781296577,0.1590239624666836,-0.01088162473831546,0.11965590884968982,0.005440921208962226
134,1.1699698573789914,0.12690401036711138,-0.008488506561321664,0.16463385000300193,0.0031827526722197773
135,1.1725079375863336,0.15013120408156003,-0.005195829561261626,0.12729872368699285,0.009204126845508467
136,1.1755105616679649,0.20779776180605986,-0.0026498550875217685,0.03927248768250749,0.0028447109584708394
137,1.179666516904086,0.22107790347941703,-0.0018644053338716187,0.018573288625617777,0.00517615442973434
138,1.1840880749736744,0.1983493394764077,-0.001492939561359263,0.0521179405260543,0.01806654243675792
139,1.1880550617632026,0.2861848072923123,-0.0004505807508381771,-0.080074038435536,0.017642660491350947
140,1.1937787579090489,0.22527230818940702,-0.002052061519548897,0.011162230207578797,0.0046046599885440015
141,1.198284204072837,0.24519878734488887,-0.001828816915397321,-0.019330731256845167,0.004450316808608465
142,1.2031881798197348,0.26299584535094506,-0.0022154315405342245,-0.04656394549670777,0.00851024030938955
143,1.2084480967267537,0.23120189743026187,-0.00314671045046838,0.0004755230074691419,0.012947830204708343
144,1.213072134675359,0.2858782366110388,-0.003137199990318997,-0.08246371106464062,0.032880561385447295
145,1.2187896994075798,0.17222178012414552,-0.0047864742116118094,0.08709779942501575,0.0032174398048809318
146,1.2222341350100627,0.15447368260757394,-0.0030445182231114945,0.11231242269441226,0.010348249049556368
147,1.2253236086622141,0.2177828995256652,-0.0007982697692232492,0.016453950456295455,0.016230251218254353
148,1.2296792666527274,0.29025273797766343,-0.00046919076009734013,-0.09248546387371209,0.02479820113269143
149,1.2354843214122806,0.37483720518101354,-0.002318900037571582,-0.2195000927918285,0.016479696126613562
150,1.2429810655159008,0.3308048376456819,-0.006708901893408153,-0.1541334750701474,0.01471268702019208
151,1.2495971622688145,0.2865715614350263,-0.009791571394811101,-0.08975745629279437,0.012391138652019351
152,1.255328593497515,0.2439183534638485,-0.011586720520666989,-0.02865938733039128,0.0004146789685518286
153,1.2602069605667918,0.24575199454104818,-0.012159908267274814,-0.034816083932698326,0.00476589862686045
154,1.2651220004576127,0.26496888354832393,-0.01285622994592878,-0.06721421129339242,0.03486991695939028
155,1.2704213781285791,0.13526694457081778,-0.014200514171796628,0.12354299180004491,0.0031358648014950395
156,1.2731267170199956,0.11375478241010403,-0.01172965433579573,0.15163317072433327,0.010331172596425634
157,1.2754018126681976,0.19746483331578074,-0.008696990921309065,0.02262829289117696,0.014565658818059499
158,1.2793511093345133,0.26918046083888114,-0.008244425063485526,-0.0874979632157162,0.0030309983806783834
159,1.284734718551291,0.2581484856966085,-0.00999438432779985,-0.07337439639637387,0.012398828609281072
160,1.289897688265223,0.30576306824366684,-0.011461872255727328,-0.14773100323777622,0.026149037012455224
161,1.2960129496300965,0.22061994493063153,-0.014416492320482852,-0.02339442406338693,0.003891172888016889
162,1.3004253485287092,0.2035363243196425,-0.01488438080175059,-0.002009957961951834,0.02254750035120435
163,1.304496075015102,0.09562614760309791,-0.014924579960989627,0.15546153086345246,0.0057620789776017785
164,1.306408597967164,0.15058069248925737,-0.011815349343720577,0.06865123030519418,0.0008340382155511736
165,1.3094202118169491,0.15604403366450142,-0.010442324737616693,0.05698315867319033,0.0006638019242961169
166,1.3125410924902392,0.1602761393081215,-0.009302661564152886,0.047565358633883933,0.004319038067934396
167,1.3157466152764017,0.13446937542127704,-0.008351354391475208,0.08353888644497195,0.0020927156211218
168,1.3184360027848272,0.11982293592292495,-0.006680576662575769,0.10305250990834211,0.0012759478205908983
169,1.3208324615032856,0.10992066121282361,-0.004619526464408927,0.11594151559081724,0.009552158037029577
170,1.323030874727542,0.19088890795712832,-0.002300696152592582,-0.006867694579733671,0.003296109014640412
171,1.3268486528866847,0.2077954989965609,-0.002438050044187255,-0.03290391809353894,0.0031330227396704513
172,1.331004562866616,0.1930141350361506,-0.003096128406058034,-0.011448724052071192,0.013388099949574468
173,1.334864845567339,0.12520411360860514,-0.003325102887099458,0.08935556027183733,0.004199119650775987
174,1.3373689278395111,0.15694384925404675,-0.0015379916816627114,0.040768641549277757,0.001066864096994204
175,1.340507804824592,0.1635204549697084,-0.0007226188506771562,0.030451575266954023,0.009596020064925841
176,1.3437782139239862,0.2203028528048605,-0.00011358734533807569,-0.05493444917149541,0.011315839366106918
177,1.3481842709800835,0.2709911097846339,-0.001212276328767984,-0.13100022883012494,0.024609010318992073
178,1.3536040931757762,0.18042178202875953,-0.003832280905370483,0.004497253823881331,0.020307077090157853
179,1.3572125288163515,0.07079297683998384,-0.0037423358288928565,0.16781256624270838,0.002374997661710075
180,1.3586283883531511,0.100393150394574,-0.0003860845040386889,0.12231237265947995,0.005618223671423638
181,1.3606362513610426,0.15213109195636523,0.00206016294915091,0.044591957259517076,0.0015968134670027744
182,1.36367887320017,0.16220719811865747,0.002952002094341252,0.030083517568963915,0.014662693588412367
183,1.366923017162543,0.24961766280364328,0.0035536724457205303,-0.10016372081187,0.0031283166382034197
184,1.371915370418616,0.237112828475065,0.00155039802948313,-0.08036181025764924,0.008804969729861738
185,1.3766576269881172,0.20029538178510103,-5.6838175669854775e-05,-0.02467988975914507,0.0035602131713607585
186,1.3806635346238192,0.182857242565083,-0.0005504359708527562,0.001460608604992572,0.00037251239033800424
187,1.3843206794751208,0.18485190399069068,-0.0005212237987529048,-0.0016932112474213456,0.005284298768289474
188,1.3880177175549346,0.15695833712904347,-0.0005550880237013317,0.03999389357168194,0.003884844464766664
189,1.3911568842975155,0.13309564698576318,0.0002447898477323071,0.07562472740153742,0.012470790874575746
190,1.3938187972372307,0.04398098151789172,0.0017572843957630556,0.2093686898129078,0.007406378368302415
