,X,v,theta,theta_dot,energy
0,0.0,0.0,0.8726646259971648,0.0,0.0
1,0.0,0.4850675489507701,0.8726646259971648,-0.24247604921288138,0.242383898696252
2,0.009701350979015403,0.9527197628210448,0.8678151050129072,-0.46816055601334006,0.4963766372593832
3,0.0287557462354363,1.4408138226492526,0.8584518938926403,-0.7171881377918787,0.8515981673737139
4,0.057572022688421355,1.9961884072628786,0.8441081311368027,-1.0391771391881943,1.1786644572025993
5,0.09749579083367893,2.5524837631525585,0.8233245883530388,-1.3738501313126776,1.3343551174681185
6,0.1485454660967301,3.0460307750879303,0.7958475857267853,-1.6614876526988325,1.6565819232644896
7,0.20946608159848873,3.561639480905314,0.7626178326728086,-1.9925785507743035,1.7354396753108188
8,0.280698871216595,4.025406581816758,0.7227662616573225,-2.2924547996409648,2.0078936827435854
9,0.36120700285293017,4.502866991593109,0.6769171656645032,-2.6351128145917944,1.1749693117292823
10,0.4512643426847923,4.753004562652311,0.6242149093726673,-2.7434294620190243,1.6202528507767993
11,0.5463244339378386,5.082218534350202,0.5693463201322868,-2.9722954001443616,0.8334669034746205
12,0.6479688046248426,5.240713294779483,0.5099004121293996,-3.0140445698235734,1.0682966589272458
13,0.7527830705204323,5.439066655518177,0.44961952073292816,-3.1302281857210854,0.44925925998065736
14,0.8615644036307958,5.519059198802892,0.38701495701850647,-3.11051248326146,0.3935083597053138
15,0.9719455876068537,5.588161085736113,0.32480470735327727,-3.0955359366417294,0.5211930479455918
16,1.0837088093215759,5.679366681698013,0.26289398862044266,-3.1313686683549267,0.6173264463664941
17,1.1972961429555362,5.786420947886697,0.20026661525334413,-3.210029202197579,0.48199278533492107
18,1.31302456191327,5.868723548130372,0.13606603120939254,-3.2725300968273343,0.19981169310199676
19,1.4303990328758776,5.902243689387449,0.07061542927284585,-3.282465492905519,1.030406844416943
20,1.5484439066636266,5.727305748880947,0.004966119414735473,-2.9999688751427716,0.44471663488316365
21,1.6629900216412457,5.649676880489211,-0.05503325808811996,-2.882066975327886,1.2465036453224865
22,1.7759835592510298,5.429725476622667,-0.11267459759467768,-2.56881097381552,1.334450249521135
23,1.8845780687834832,5.185838802026608,-0.16405081707098806,-2.238356998741626,1.2387487890883961
24,1.9882948448240154,4.950184917817327,-0.20881795704582057,-1.9376369647828438,0.14792453683119594
25,2.087298543180362,4.9227523828636786,-0.24757069634147744,-1.9583293345025476,1.136150316218513
26,2.1857535908376358,4.697071210730688,-0.2867372830315284,-1.702173445901818,1.0989064584497528
27,2.2796950150522495,4.4695994076724395,-0.3207807519495648,-1.458046976840652,1.312750363168932
28,2.3690870032056983,4.1846973876071685,-0.3499416914863778,-1.1451938546478249,0.9873818637545818
29,2.4527809509578415,3.957922324402414,-0.3728455685793343,-0.926443446367158,1.264585936245503
30,2.53193939744589,3.650643247093397,-0.3913744375066775,-0.6042869296495581,0.9187731208398153
31,2.6049522623877577,3.4108660747049706,-0.40346017609966867,-0.3839660966721722,0.8682542163079511
32,2.673169583881857,3.1691946845062398,-0.4111394980331121,-0.1659907137122862,0.7555846021444359
33,2.736553477571982,2.9439615614108137,-0.41445931230735783,0.026206296540675467,0.5245510407369154
34,2.7954327088001985,2.7774548166309136,-0.4139351863765443,0.13642791689692213,0.5002518800662555
35,2.850981805132817,2.609358535646336,-0.41120662803860586,0.24902622200216185,0.4834256283751402
36,2.9031689758457437,2.4365781544029,-0.40622610359856265,0.36907571861720934,0.010298395518640455
37,2.9519005389338018,2.4376219571961384,-0.39884458922621846,0.25146469229804774,0.5147293624108887
38,3.0006529780777247,2.239790654821874,-0.3938152953802575,0.4107440312463147,0.11141360910918922
39,3.045448791174162,2.197110789824898,-0.3856004147553312,0.3570511829421715,0.04580949448836484
40,3.08939100697066,2.1820153697740987,-0.37845939109648774,0.2674537242502442,0.4959152782555177
41,3.133031314366142,1.9684594522374799,-0.37311031661148286,0.4564893060060587,0.05606569279097434
42,3.1724005034108913,1.9459553642649523,-0.3639805304913617,0.3807559795795273,0.026650476910476343
43,3.2113196106961905,1.963761921587817,-0.35636541089977114,0.25113292166989615,0.35553130500761093
44,3.250594849127947,1.7942665057037408,-0.3513427524663732,0.386834334941474,0.18870620087954962
45,3.2864801792420217,1.6980148466910783,-0.3436060657675437,0.4212093106480913,0.2463012747264022
46,3.3204404761758433,1.563595949200554,-0.3351818795545819,0.5120076076571347,0.17866828307979132
47,3.351712395159854,1.4588633799220125,-0.32494172740143923,0.563655354121999,0.04559391961890026
48,3.3808896627582943,1.433303310469742,-0.3136686203189992,0.5061285474344074,0.031222547769854357
49,3.409555728967689,1.4166193614477858,-0.3035460493703111,0.4392196107389854,0.03660709424465456
50,3.437888116196645,1.3959133532863257,-0.2947616571555314,0.3809803168148297,0.021991245140499466
51,3.4658063832623713,1.4149307115631549,-0.2871420508192348,0.2682740994382135,0.002876954384552879
52,3.4941049974936345,1.4168276606020127,-0.28177656883047053,0.1822807155686616,0.24589302332909616
53,3.5224415507056746,1.2532023480464247,-0.2781309545190973,0.33628893444577834,0.16346654150476433
54,3.547505597666603,1.1318467104738705,-0.27140517583018176,0.43060657645129174,0.024027921796470446
55,3.57014253187608,1.1152182764364515,-0.2627930443011559,0.37581908576723366,0.20818824299049496
56,3.5924468974048094,0.9401756632767257,-0.2552766625858112,0.5529937638398751,0.03714506947011638
57,3.611250410670344,0.9061912401018758,-0.24421678730901372,0.528079566978811,0.038963005130091925
58,3.6293742354723815,0.9501972994104504,-0.2336551959694375,0.39294101625123523,0.014332157603245075
59,3.6483781814605907,0.9389857552371231,-0.2257963756444128,0.34123007804100486,0.0022903768236707148
60,3.667157896565333,0.9444117013071193,-0.2189717740835927,0.26747627375532373,0.13048138399353348
61,3.6860461305914756,0.8147671426193492,-0.21362224860848622,0.3934350378631324,0.03486683159267352
62,3.7023414734438624,0.8584352245175233,-0.20575354785122357,0.2670934656165702,0.15453208111177966
63,3.719510177934213,0.6885821626466525,-0.20041167853889216,0.4564334390160978,0.005760990072022803
64,3.7332818211871457,0.6834264159387974,-0.1912830097585702,0.4054848692259338,0.06718452664403696
65,3.7469503495059215,0.7792513690404727,-0.18317331237405154,0.208474163328448,0.011217103548931885
66,3.762535376886731,0.7679620311125845,-0.17900382910748258,0.17157256605851412,0.02665231731773566
67,3.7778946175089825,0.7370177021679184,-0.1755723777863123,0.1649008697509671,0.04017795006398724
68,3.792634971552341,0.686934248343058,-0.17227436039129296,0.187517637274161,0.10821172558340318
69,3.806373656519202,0.5378412933945991,-0.16852400764580974,0.35744812835466255,0.04865321044605146
70,3.817130482387094,0.6257109377688431,-0.1613750450787165,0.178199012057145,0.11155802251948907
71,3.829644701142471,0.4565534276030826,-0.1578110648375736,0.38139994511543146,0.030404701610503106
72,3.8387757696945326,0.52126213606011,-0.15018306593526495,0.2393389075712763,0.07164693906281394
73,3.849201012415735,0.3922024017568301,-0.14539628778383942,0.38676137999522664,0.0482513762439085
74,3.8570450604508717,0.5089839666854099,-0.1376610601839349,0.17084129483342433,0.01304045753078419
75,3.86722473978458,0.48633721328809565,-0.13424423428726642,0.16414541254326645,0.022876562514804574
76,3.876951484050342,0.5333780396968528,-0.1309613260364011,0.054869662130920566,0.09676464481896883
77,3.8876190448442793,0.35927481876004713,-0.1298639327937827,0.2753955111003063,0.041085438676361316
78,3.8948045412194805,0.46881269765386596,-0.12435602257177657,0.07439946308879236,0.01688370249632016
79,3.904180795172558,0.4357287517176116,-0.12286803331000072,0.08717564632669669,0.008559767630905863
80,3.91289537020691,0.41849708198696306,-0.12112452038346679,0.07679591106425322,0.08686408521915727
81,3.921265311846649,0.21959261650809045,-0.11958860216218171,0.3374430678328365,0.01017426770295457
82,3.9256571641768105,0.26350222874040563,-0.11283974080552499,0.23697376144929821,0.013676538706061043
83,3.9309272087516187,0.31371405702963384,-0.10810026557653903,0.1290304865515654,0.0310314209148908
84,3.937201489892211,0.22058738475034897,-0.10551965584550772,0.23618548770541814,0.001490605302798159
85,3.941613237587218,0.2157994276357897,-0.10079594609139936,0.21236223633112855,0.0011088371086250587
86,3.945929226139934,0.22202549842587127,-0.09654870136477679,0.17348667756759573,0.002015357690537784
87,3.9503697361084513,0.21485028284863766,-0.09307896781342488,0.15585813716746136,0.0037842325778236685
88,3.954666741765424,0.19954749789752035,-0.08996180507007566,0.1513872327024531,0.015450479064230683
89,3.9586576917233747,0.2738154033901943,-0.0869340604160266,0.014022755592083547,0.0346850569456017
90,3.9641339997911786,0.1518255498992657,-0.08665360530418492,0.17079008204248142,0.011073270911915362
91,3.967170510789164,0.085390200385063,-0.08323780366333529,0.24462491153504948,0.012908135102816918
92,3.9688783147968656,0.21704375612398008,-0.0783453054326343,0.023384642429308794,0.00571799511186255
93,3.973219189919345,0.19259620815697018,-0.07787761258404811,0.036933514100358306,0.016317464698550253
94,3.9770711140824844,0.11179912498869872,-0.07713894230204095,0.1348889221716018,0.012594045602622648
95,3.9793070965822586,0.008741423269054874,-0.07444116385860891,0.2663594112937665,0.0013849090700348387
96,3.9794819250476396,0.07467691150477979,-0.06911397563273358,0.1458645933462616,0.0006140201838455858
97,3.980975463277735,0.0830296507770678,-0.06619668376580835,0.1130620608275077,0.009150947653320318
98,3.9826360562932765,-0.017262449715241684,-0.0639354425492582,0.2437231073335021,2.253049762342949e-05
99,3.9822908072989716,-0.012810635523388084,-0.05906098040258816,0.2182748132917492,0.00025216562265852684
100,3.982034594588504,0.07269363356804166,-0.05469548413675318,0.07288820140266289,0.005741567527707029
101,3.9834884672598645,-0.0002103381568544921,-0.053237720108699926,0.1660081695205033,0.00040476227288314655
102,3.9834842604967275,-0.05334528684414218,-0.04991755671828986,0.2299531735511534,0.003938706422078196
103,3.9824173547598445,0.03691256764582912,-0.04531849324726679,0.08006536496239461,0.0006412267282335645
104,3.983155606112761,0.0529871103655144,-0.0437171859480189,0.042659229777560134,0.0011489982837301676
105,3.9842153483200713,0.07401968013375963,-0.04286400135246769,-0.0017082407255761267,0.0004400067043080011
106,3.9856957419227466,0.06882880360474171,-0.04289816616697922,-0.006527235580211678,0.0035284186950505308
107,3.9870723179948415,0.019220265380373247,-0.04302871087858345,0.055208920093163104,0.0007591329199102959
108,3.987456723302449,-0.014245642236496006,-0.041924532476720185,0.09271478013824971,0.0005543063300934055
109,3.987171810457719,0.04023827480707008,-0.04007023687395519,-0.0012614846205750013,0.0035646164364462334
110,3.987976575953861,0.12735235846994475,-0.040095466566366686,-0.14360521715586683,0.005998821208747579
111,3.9905236231232597,0.07949589328340984,-0.04296757090948402,-0.08366312276999122,0.010252666405727405
112,3.9921135409889277,-0.052011752759869995,-0.04464083336488384,0.10078770187712799,0.0037980594947718722
113,3.9910733059337304,-0.1294776043872651,-0.04262507932734128,0.20375067146740033,0.020958765764397903
114,3.988483753845985,0.04118777424052128,-0.03855006589799328,-0.06454284941593652,0.007066528944161137
115,3.9893075093307955,-0.13845089921621065,-0.03984092288631201,0.1933840513731684,0.008123104131395163
116,3.9865384913464714,-0.07677081732367755,-0.03597324185884864,0.0892272145368329,0.0013600105760914218
117,3.985003074999998,-0.09450044361321974,-0.034188697568111985,0.1052305960346411,0.0038027666800829257
118,3.983113066127734,-0.13535850065809152,-0.032084085647419165,0.1564323478041016,0.0037157279213834477
119,3.980405896114572,-0.10663599853443897,-0.028955438691337133,0.10393966473651592,0.0059109567950018675
120,3.978273176143883,-0.16280304793688802,-0.026876645396606814,0.1796432132682233,0.01747625036360859
121,3.9750171151851457,-0.05216840536388635,-0.023283781131242347,0.005850401366133268,0.004943468181898139
122,3.973973747077868,-0.14475306639838992,-0.02316677310391968,0.13784493647162516,0.012200763764149273
123,3.9710786857499003,-0.2303684753264484,-0.020409874374487175,0.25942316703973567,0.03787461981920287
124,3.9664713162433713,-0.061031569108244504,-0.015221411033692463,-0.0005293759872405657,0.0034848978685996226
125,3.9652506848612066,-0.11649765429682393,-0.015231998553437274,0.0781851916833308,0.00512157789604564
126,3.96292073177527,-0.07203997755756555,-0.013668294719770657,0.0070283781110164895,0.0054178222775145505
127,3.961479932224119,0.0018532958158713198,-0.013527727157550327,-0.1078195319531667,0.00024645208085154625
128,3.9615169981404366,-0.07686080418898233,-0.01568411779661366,0.006263784261243299,0.0010686383355256563
129,3.959979782056657,-0.09025053863954366,-0.015558842111388796,0.021734974081898485,0.0054063801310379935
130,3.958174771283866,-0.1491162261179811,-0.015124142629750826,0.10544870294121739,0.004831715350508407
131,3.9551924467615067,-0.11623826681753303,-0.013015168570926479,0.051691075833709965,0.002010899232843604
132,3.952867681425156,-0.13327748462476147,-0.01198134705425228,0.0734213862808372,0.004342563034600828
133,3.9502021317326608,-0.10050152929743889,-0.010512919328635534,0.020738550297954295,0.00013082571164158542
134,3.948192101146712,-0.09906878266053502,-0.01009814832267645,0.015498807753785654,0.000656186997002426
135,3.9462107254935015,-0.0924157435126895,-0.009788172167600737,0.0025509526983293392,0.013295857270493008
136,3.9443624106232478,-0.23281172919121948,-0.009737153113634149,0.21025716630374985,0.02944453276563023
137,3.939706176039423,-0.1040026501193767,-0.005532009787559152,0.014190029344182703,0.0023952523552953583
138,3.9376261230370355,-0.126532442418463,-0.005248209200675497,0.046357798100459736,0.0006161073503672619
139,3.935095474188666,-0.1216263446318984,-0.004321053238666302,0.03745578634763521,0.019296442795469482
140,3.932662947296028,-0.2785454779012104,-0.0035719375117135976,0.2715619031193717,0.032917428578706
141,3.927092037738004,-0.15785468641606532,0.0018593005506738359,0.08947672339168145,0.00028424916560335745
142,3.9239349440096825,-0.1596845787660778,0.003648835018507465,0.09276819121919595,0.009307096033169994
143,3.920741252434361,-0.10133198549314387,0.005504198842891384,0.006312639103831494,0.006120407229473705
144,3.9187146127244983,-0.16050452198469528,0.005630451624968014,0.09668832560584747,0.003553830902280666
145,3.915504522284804,-0.13837555143915745,0.007564218137084963,0.06515073996680443,0.004274289287746505
146,3.912737011256021,-0.16927854576883133,0.008867232936421051,0.11372776425091505,0.005382663860100835
147,3.9093514403406444,-0.201404679667483,0.011141788221439353,0.1645220029254956,0.014449803907429249
148,3.9053233467472945,-0.12887061930507365,0.014432228279949265,0.05900328352939417,0.002337951092841675
149,3.902745934361193,-0.14715273816795388,0.015612293950537148,0.0906665337152154,0.001664823494539753
150,3.8998028795978343,-0.13602105899939224,0.017425624624841457,0.07856087783792397,0.008717480854541413
151,3.8970824584178465,-0.07206072528484571,0.018996842181599936,-0.012242182452822215,0.008471431352232276
152,3.8956412439121495,0.04147748915518734,0.01875199853254349,-0.17693403909880556,0.00011583722144508511
153,3.8964707936952534,0.04458904136648228,0.01521331775056738,-0.17608778236317546,0.00508150406931278
154,3.897362574522583,0.17987430615044345,0.01169156210330387,-0.37451965377533986,0.0015804804290536537
155,3.900960060645592,0.1702399974516404,0.004201169027797072,-0.3566319374705482,0.01189480408454975
156,3.904364860594625,0.09483968786895283,-0.0029314697216138927,-0.24229733113570445,0.004296916855170128
157,3.9062616543520043,0.14489103777756013,-0.007777416344327982,-0.31823588427485217,0.023222679355966933
158,3.9091594751075553,-0.028706337194974146,-0.014142134029825025,-0.06013423457520228,0.0014688084060986034
159,3.9085853483636557,0.01707494876701312,-0.01534481872132907,-0.13295694525456148,0.0015228233313753364
160,3.908926847338996,-0.11736955533375626,-0.0180039576264203,0.06417486912412662,0.003956260274779589
161,3.906579456232321,-0.15083429040150648,-0.016720460243937765,0.10907095884831866,0.0036795077952895077
162,3.903562770424291,-0.1259871077501703,-0.014539041066971393,0.06688980845631817,0.008428612151362447
163,3.9010430282692874,-0.05889693068328673,-0.013201244897845028,-0.03800914848598133,0.0039029339638781816
164,3.8998650896556217,-0.1215154950573029,-0.013961427867564656,0.052029460385727574,0.006312084558874264
165,3.8974347797544757,-0.17299813425777674,-0.012920838659850104,0.1251413665583349,0.007514584867641392
166,3.8939748170693202,-0.21663111441250993,-0.010418011328683405,0.18678675266648592,0.007099004494531734
167,3.88964219478107,-0.18320751796919735,-0.006682276275353686,0.13359123877270787,0.004091558004578078
168,3.885978044421686,-0.20564684571372388,-0.004010451499899528,0.16528490430366424,0.0024437326392033865
169,3.8818651075074118,-0.21762234183329707,-0.000704753413826243,0.18206893444498493,0.008674738858281475
170,3.877512660670746,-0.1771856906158606,0.0029366252750734553,0.12120677519529369,0.009938110470703887
171,3.8739689468584286,-0.12075107554129796,0.005360760778979329,0.03741858418241653,0.005014957770868169
172,3.8715539253476026,-0.07973075660711143,0.00610913246262766,-0.02253495397676398,0.001668735827233193
173,3.86995931021546,-0.05965825897387314,0.00565843338309238,-0.05084706480465069,0.0031909780679211775
174,3.8687661450359827,-0.009502677881486628,0.004641492086999367,-0.12441566150308407,0.0006117637966756982
175,3.868576091478353,-0.04894413504490195,0.0021531788569376853,-0.06388951926168705,0.002037440606048356
176,3.867597208777455,-0.010637198191845214,0.0008753884717039441,-0.12071675724815985,0.0006549798065192499
177,3.8673844648136178,0.028980122670374885,-0.0015389466732592528,-0.1798853515944678,8.823818148824264e-05
178,3.8679640672670255,0.02486410349791378,-0.005136653705148609,-0.17416378029027066,0.000321467670965843
179,3.8684613493369837,0.006432139967703952,-0.008619929310954023,-0.14802636929086252,2.245002892122034e-05
180,3.8685899921363376,-0.0674424223811655,-0.011580456696771274,-0.03975287041193511,0.005408989609822065
181,3.867241143688714,-0.14347954151378498,-0.012375514105009975,0.07089058236992635,0.015363305883921888
182,3.8643715528584384,-0.25016578379760723,-0.010957702457611448,0.2272693831601943,0.0058016802631231735
183,3.859368237182486,-0.22640919144378177,-0.006412314794407563,0.1884151339173506,0.0024461738745382537
184,3.8548400533536102,-0.21536239710394645,-0.0026440121160605508,0.1699600754409486,9.559082921327512e-05
185,3.8505328054115315,-0.21577369876991775,0.0007551893927584211,0.16979968712699314,0.007813557482202535
186,3.846217331436133,-0.17914533817021655,0.004151183135298284,0.11507918755497586,0.008085038853129296
187,3.842634424672729,-0.13385016852064613,0.006452766886397801,0.048357462822060396,0.007645620050168774
188,3.8399574213023158,-0.19060047441225428,0.007419916142839009,0.13537824972939094,0.002197456561828532
189,3.8361454118140705,-0.17908363036775737,0.010127481137426828,0.1202848945360167,0.005369185817023101
190,3.8325637392067153,-0.14905767493832348,0.012533179028147162,0.07822569965760022,0.006705941108438051
191,3.829582585707949,-0.19420092674286735,0.014097693021299167,0.1496199172558199,0.01384046135721109
192,3.8256985671730916,-0.12235030745591062,0.017090091366415566,0.04599928256793823,0.008124883834390266
193,3.8232515610239735,-0.056683435553016095,0.01801007701777433,-0.04746239880319594,0.004879947279458918
