,X,v,theta,theta_dot,energy
0,0.0,-2.0,-0.3490658503988659,0.0,1.0824761325192733
1,-0.04,-2.5189856918889832,-0.3490658503988659,0.6309766153045733,1.3269979898337805
2,-0.09037971383777967,-3.0296591256014773,-0.3364463180927744,1.2502367791033753,1.785472443301393
3,-0.1509728963498092,-3.6064593931605944,-0.3114415825107069,1.969869082087326,1.863957704480165
4,-0.22310208421302108,-4.1164461616276125,-0.2720442008689604,2.607957422950765,2.400890095060663
5,-0.30543100744557333,-4.6968170822839035,-0.2198850524099451,3.3674998010566455,1.5389014405468493
6,-0.3993673490912514,-5.025264447922474,-0.1525350563888122,3.7841820473610506,2.498400596891344
7,-0.49987263804970083,-4.523968674859592,-0.0768514154415912,2.9962975485871066,1.2122111111919016
8,-0.5903520115468927,-4.254138212573639,-0.016925464469849064,2.570174427536815,0.4229976981482957
9,-0.6754347757983654,-4.154261024236188,0.03447802408088724,2.4154042545097405,1.3576575166903748
10,-0.7585199962830892,-3.82710840433909,0.08278610917108205,1.9351014998131857,0.3593565727526668
11,-0.835062164369871,-3.9216916617937656,0.12148813916734577,2.100801815108675,1.3766199003695787
12,-0.9134959976057463,-3.5723475091049117,0.1635041754695193,1.616277622699466,0.07544906831254726
13,-0.9849429477878445,-3.595222323920371,0.1958297279235086,1.6979885527752856,0.9553490641210004
14,-1.056847394266252,-3.3333353014633595,0.22978949897901432,1.369873020988395,0.5568600772283164
15,-1.1235141002955191,-3.1707237809683435,0.2571869593987822,1.1993323942118213,0.8194864601229351
16,-1.186928575914886,-2.9186881073531277,0.28117360728301866,0.9084954633953477,0.21411172557576894
17,-1.2453023380619486,-2.8501209925211657,0.2993435165509256,0.8912637991658499,0.7282897370530514
18,-1.3023047579123719,-2.602787571968826,0.3171687925342426,0.6234604737862386,0.7335569474337242
19,-1.3543605093517483,-2.3310239133193384,0.3296380020099674,0.32783951893294777,0.3247412371523663
20,-1.4009809876181352,-2.199648629533355,0.3361947923886264,0.23655450233176864,0.2875347847239485
21,-1.4449739602088023,-2.076953040958644,0.34092588243526173,0.1598042613305724,0.46851251669065186
22,-1.4865130210279751,-1.862416549994765,0.3441219676618732,-0.04517737197752161,0.28355791532091723
23,-1.5237613520278703,-1.7197733986157564,0.34321842022232274,-0.1474109288574672,0.19380398445811536
24,-1.5581568200001854,-1.6156329988735494,0.3402702016451734,-0.19557403204959828,0.23827759413063246
25,-1.5904694799776564,-1.478110876504061,0.33635872100418146,-0.29190977747964275,0.11266172402919916
26,-1.6200316975077376,-1.4093639869330221,0.3305205254545886,-0.2922162255674865,0.07508353486526247
27,-1.648218977246398,-1.3625841618730845,0.32467620094323885,-0.2631745093171908,0.38974605910342824
28,-1.6754706604838596,-1.0921588722529743,0.31941271075689504,-0.5538329473699082,0.18794207536573443
29,-1.6973138379289192,-1.2594179530634841,0.30833605180949686,-0.2233156186255354,0.4461713151059068
30,-1.7225021969901888,-0.922827131748592,0.30386973943698614,-0.6151701088458281,0.323165695330133
31,-1.7409587396251607,-1.2566559018495305,0.2915663372600696,-0.049398947323924025,0.6353612870251459
32,-1.7660918576621514,-0.7711169223748658,0.2905783583135911,-0.6624578886170146,0.3028992631816512
33,-1.7815141961096488,-1.1420816954753323,0.27732920054125076,-0.04510504446993768,0.6302000278613651
34,-1.8043558300191553,-0.6113556878695845,0.276427099651852,-0.7302819379633905,0.36721968333189486
35,-1.816582943776547,-1.1688077219197581,0.26182146089258423,0.15439054937109364,0.5704900239780356
36,-1.8399590982149423,-0.6957388908228151,0.2649092718800061,-0.4549304312896073,0.12305313641845719
37,-1.8538738760313986,-0.8661906129623187,0.255810663254214,-0.13119625698205872,0.3454175675277965
38,-1.871197688290645,-0.4850063877795342,0.2531867381145728,-0.6099753765213094,0.25253756727718146
39,-1.8808978160462355,-0.9674885719808057,0.24098723058414662,0.16431911249479714,0.47851451897208713
40,-1.9002475874858515,-0.48663563585332703,0.24427361283404256,-0.46595089636842624,0.1812266657384754
41,-1.909980300202918,-0.837036631382575,0.23495459490667403,0.11515156170288898,0.433937543199301
42,-1.9267210328305695,-0.33340713433679126,0.23725762614073181,-0.5510939317022413,0.15940326027345192
43,-1.9333891755173054,-0.7695100828698065,0.22623574750668698,0.1538362954593755,0.35842699771506425
44,-1.9487793771747015,-0.3158261738933129,0.2293124734158745,-0.4434008038682823,0.1345607853012112
45,-1.9550959006525677,-0.7087957506482764,0.22044445733850884,0.19745192479561402,0.4200250529087527
46,-1.969271815665533,-0.12851180174654286,0.22439349583442111,-0.5876229800458329,0.08397586821540798
47,-1.971842051700464,-0.6596030381548877,0.21264103623350444,0.2544610260445904,0.3652074724137485
48,-1.9850341124635618,-0.114735571265422,0.21773025675439625,-0.4823856596379962,0.060942862324285176
49,-1.9873288238888702,-0.5528589941392099,0.20808254356163633,0.22279162844658773,0.29023598566648884
50,-1.9983860037716543,-0.03585140786708629,0.21253837613056809,-0.4752553119198949,0.028425133395388377
51,-1.999103031928996,-0.5237893231510635,0.2030332698921702,0.3021995422592575,0.22416038297082974
52,-2.009578818392017,-0.0993453090609348,0.20907726073735533,-0.2621064918616878,0.015274058181339707
53,-2.0115657245732357,-0.23605273047870629,0.20383513090012156,-0.0004891472154626708,0.08838600770717844
54,-2.01628677918281,0.12528799107247435,0.2038253479558123,-0.4717658136500961,0.05638674554311925
55,-2.0137810193613603,-0.40352319377921253,0.19439003168281038,0.36454151121662276,0.2323662140088003
56,-2.0218514832369445,0.17756303612897006,0.20168086190714285,-0.43387986758087865,0.06304431118960269
57,-2.018300222514365,-0.21279993699955135,0.19300326455552527,0.19868936575954604,0.1057488654520481
58,-2.022556221254356,0.28903963326014637,0.19697705187071618,-0.48370188253517726,0.13232101557789766
59,-2.016775428589153,-0.1949808539105956,0.18730301422001264,0.2858268361917338,0.09457001222256696
60,-2.0206750456673648,0.30745711166433665,0.19301955094384732,-0.3999029924161091,0.1338721107701904
61,-2.014525903434078,-0.144980105308883,0.18502149109552513,0.3225458812822836,0.0745812251669553
62,-2.0174255055402557,0.4083067100108972,0.1914724087211708,-0.4391328478875753,0.20151663156817334
63,-2.009259371340038,-0.09879286728008702,0.18268975176341928,0.3635652746067289,0.039787411455260706
64,-2.01123522868564,0.3677471999307926,0.18996105725555387,-0.2711864848550271,0.1297291266681897
65,-2.003880284687024,0.010150865955843968,0.18453732755845334,0.3110724033467978,0.012402023960689226
66,-2.003677267367907,0.5096114579978626,0.1907587756253893,-0.37145159124868193,0.1842594111936687
67,-1.9934850382079499,0.14331134433037068,0.18332974380041564,0.22377547546132232,0.055580153420522665
68,-1.9906188113213426,0.49359374593972166,0.1878052533096421,-0.2392456102606229,0.13166298796580858
69,-1.980746936402548,0.22565938797310708,0.18302034110442963,0.21047977584714822,0.13619000453917815
70,-1.9762337486430859,0.7869852847864081,0.1872299366213726,-0.563938485228594,0.42904339310121753
71,-1.9604940429473576,0.23633656475631726,0.17595116691680074,0.3023241339410181,0.1231584654402535
72,-1.9557673116522314,0.7136998177902404,0.1819976495956211,-0.35120222058663975,0.25695477254890614
73,-1.9414933152964267,0.35287707237050114,0.1749736051838883,0.23430533384606622,0.19460202818809527
74,-1.9344357738490165,0.8717769645364422,0.17965971186080962,-0.4809798342284093,0.4733732397265863
75,-1.9170002345582877,0.32739944681001265,0.17004011517624143,0.37497970996201146,0.17926895545727964
76,-1.9104522456220874,0.8321168962903753,0.17753970937548166,-0.3214266615940855,0.4456667972155642
77,-1.8938099076962798,0.2991447549677164,0.17111117614359994,0.5173879070953366,0.16246217078736291
78,-1.8878270125969254,0.7875269258560367,0.18145893428550666,-0.1544254154287098,0.17265342030286757
79,-1.8720764740798046,0.5697245368192971,0.17837042597693248,0.21997080536106867,0.22704867613833746
80,-1.8606819833434187,0.9485610094847832,0.18276984208415384,-0.2871047767805957,0.3024252728736953
81,-1.841710763153723,0.6314617258761265,0.17702774654854192,0.23405742573579208,0.32672842464018154
82,-1.8290815286362005,1.124430520021799,0.18170889506325777,-0.4420644583362004,0.6228982016337783
83,-1.8065929182357645,0.5731001902466359,0.17286760589653377,0.42444455732540315,0.35525475653776234
84,-1.7951309144308318,1.1548068710804156,0.18135649704304183,-0.3845401235446941,0.5503765247942745
85,-1.7720347770092235,0.6814116455388344,0.17366569457214795,0.36693415865035833,0.3817585791462161
86,-1.7584065440984469,1.2115583778905625,0.18100437774515513,-0.3655227670487636,0.5271882849742002
87,-1.7341753765406356,0.7797381319567684,0.17369392240417986,0.32455106336361944,0.47655605986372374
88,-1.7185806139015003,1.361409325790023,0.18018494367145224,-0.484017576041968,0.6581255440589453
89,-1.6913524273857,0.8808008356283099,0.1705045921506129,0.27791217840005406,0.5327602751636018
90,-1.6737364106731336,1.4590831451752249,0.17606283571861397,-0.5270471995014978,0.7026601700910043
91,-1.6445547477696292,0.9801748732871699,0.16552189172858403,0.23170546137937675,0.491310461706216
92,-1.6249512503038859,1.4607938379493137,0.17015600095617156,-0.430928164421739,0.678855263125533
93,-1.5957353735448996,0.9999395929599522,0.1615374376677368,0.3001547811674411,0.5869967431939687
94,-1.5757365816857005,1.5617218329051932,0.16754053329108562,-0.4842622311277385,0.7402916357090578
95,-1.5445021450275966,1.0913749110690445,0.15785528866853085,0.26040617446467573,0.6137761653332527
96,-1.5226746468062158,1.6310422491481606,0.16306341215782436,-0.49281311301110453,0.47399768917777646
97,-1.4900538018232525,1.3419205352861845,0.15320714989760226,-0.01715504629352005,0.6750921230815567
98,-1.4632153911175287,1.830016677768425,0.15286404897173186,-0.695856554429011,1.011637360282259
99,-1.4266150575621603,1.2801610000756019,0.13894691788315164,0.16407638711248973,0.7725272593208776
100,-1.4010118375606484,1.862745631343948,0.14222844562540143,-0.6606594050638478,0.9125073924193751
101,-1.3637569249337695,1.3758274405626776,0.1290152575241245,0.10401727636894942,0.7766601597074599
102,-1.336240376122516,1.9222026472685334,0.13109560305150347,-0.6709088557053382,0.764880226604685
103,-1.2977963231771452,1.526473769365416,0.1176774259373967,-0.04397719788209686,0.9146931166237733
104,-1.267266847789837,2.1095795961090884,0.11679788197975477,-0.8780694282809127,1.1190020886089564
105,-1.2250752558676552,1.5811113298526376,0.09923649341413651,-0.056507249609073495,0.761345901428373
106,-1.1934530292706025,2.0499030166672454,0.09810634842195504,-0.7271075001613487,0.9110931083653913
107,-1.1524549689372576,1.6081734972896595,0.08356419841872806,-0.03890233150484301,0.7763770808879783
108,-1.1202914989914645,2.0782524018860107,0.0827861517886312,-0.717020917161829,1.0411353517581323
109,-1.0787264509537442,1.5808486739156145,0.06844573344539462,0.05084073643278786,0.8734960876943049
110,-1.047109477475432,2.117973486007696,0.06946254817405037,-0.7328526320352121,1.0020609293060336
111,-1.004750007755278,1.648238233872995,0.05480549553334613,-0.009543370668610884,0.9886830560060323
112,-0.9717852430778181,2.2326913525386622,0.05461462811997391,-0.8688020113788818,1.1446281656790882
113,-0.9271314160270449,1.7229014287675302,0.03723858789239627,-0.08920855745928369,1.0313095038016287
114,-0.8926733874516942,2.307674701591247,0.0354544167432106,-0.9548147380047842,1.3585735523671645
115,-0.8465198934198693,1.721886189865681,0.016358121983114916,-0.06626275668277926,0.8133264290799088
116,-0.8120821696225557,2.1832756305311856,0.01503286684945933,-0.7534452496028635,1.28941764360123
117,-0.7684166570119321,1.5977122233763366,-3.603814259794079e-05,0.12922011206370188,0.8732370586960895
118,-0.7364624125444054,2.1289836971530827,0.002548364098676097,-0.6676976932978478,0.8820785487667735
119,-0.6938827386013438,1.718889198967139,-0.010805589767280858,-0.05180872519810009,0.9665820616271212
120,-0.659504954622001,2.2684061503650192,-0.01184176427124286,-0.8792128128164349,1.305339997177606
121,-0.6141368316147006,1.697098597687747,-0.029426020527571557,-0.025792965149695757,0.6308694413474206
122,-0.5801948596609456,2.0604153745386933,-0.02994187983056547,-0.5791822045744862,0.9029717421153629
123,-0.5389865521701718,1.6277744979080193,-0.0415255239220552,0.060686632544966757,0.9783184032263083
124,-0.5064310622120114,2.2136611740029073,-0.04031179127115586,-0.8295907724704076,1.068789093225538
125,-0.46215783873195326,1.7350762836508993,-0.056903606720564014,-0.12414510482333774,0.17103664261762952
126,-0.4274563130589353,1.8323515679452982,-0.05938650881703077,-0.28654249382233343,0.3861471797573041
127,-0.3908092817000293,1.6261820076876,-0.06511735869347743,0.004717301542388641,0.5298580754059273
128,-0.35828564154627734,1.9448551480883145,-0.06502301266262965,-0.49141029857955737,0.49062818195817404
129,-0.31938853858451105,1.6968770590878324,-0.0748512186342208,-0.1393325227782885,0.205379565783784
130,-0.2854509974027544,1.816419089553311,-0.07763786908978657,-0.34012919885775084,0.42332616075580015
131,-0.2491226156116882,1.588303248003481,-0.08444045306694158,-0.021788778289789756,0.5245447113091943
132,-0.21735655065161857,1.9117402101998868,-0.08487622863273737,-0.5300116257503003,0.5052236355414956
133,-0.17912174644762083,1.6519594757507883,-0.09547646114774339,-0.16666693308506741,0.2187356933499074
134,-0.14608255693260508,1.7830033766216475,-0.09880979980944474,-0.3903649940856202,0.5048443351936989
135,-0.11042248940017213,1.5055954971933594,-0.10661709969115714,-0.005285684016781311,0.5387710537930123
136,-0.08031057945630495,1.855995903462551,-0.10672281337149277,-0.5591878930024929,0.5067873210941386
137,-0.04319066138705392,1.5876356705231356,-0.11790657123154262,-0.19025476657351392,0.2266401854095258
138,-0.011437947976591208,1.7291922778642053,-0.1217116665630129,-0.4356997212539696,0.18926590581468217
139,0.023145897580692895,1.6230016596121521,-0.1304256609880923,-0.3132870956903794,0.03036846384237267
140,0.055605930772935935,1.6064439939270365,-0.13669140290189988,-0.32689806571395985,0.0339616092248588
141,0.08773481065147667,1.6291508503612153,-0.14322936421617907,-0.40070288767577833,0.06540280253037581
142,0.12031782765870098,1.5916064444427558,-0.15124342196969465,-0.3869285536878441,0.13604024332035144
143,0.1521499565475561,1.6778865282058857,-0.15898199304345154,-0.5591675217900761,0.04782218320449387
144,0.1857076871116738,1.6518995980268991,-0.17016534347925305,-0.5672227671683929,0.15678811550726093
145,0.21874567907221176,1.5603879919652563,-0.18150979882262092,-0.48172546162126345,0.07050322357441119
146,0.2499534389115169,1.5182963179363989,-0.19114430805504617,-0.47269650018743187,0.02952071939910499
147,0.28031936527024487,1.5017375339110475,-0.20059823805879481,-0.5041655409531098,0.2526228902478374
148,0.31035411594846585,1.3383567555700808,-0.210681548877857,-0.3225897994009945,0.0367804951545522
149,0.33712125105986745,1.3142438440528224,-0.2171333448658769,-0.3487033566515123,0.15783404106530735
150,0.3634061279409239,1.1990654553782552,-0.22410741199890716,-0.24332928809536974,0.0734557069020994
151,0.387387437048489,1.1420574049246754,-0.22897399776081456,-0.22529306284706985,0.020867532870611532
152,0.4102285851469825,1.1631201882522586,-0.23347985901775595,-0.3227942785967973,0.29822937562455104
153,0.4334909889120277,0.9140438099749559,-0.23993574458969189,-0.027338052382145706,0.29368850626747556
154,0.45177186511152684,1.2299333447682115,-0.2404825056373348,-0.5574647625215621,0.5654881411821867
155,0.47637053200689106,0.7773539967992307,-0.25163180088776604,0.031846205480811296,0.24285921271343297
156,0.49191761194287564,1.0836716792648184,-0.2509948767781498,-0.48636171825427676,0.5205842737116576
157,0.513591045528172,0.6110892341696175,-0.26072211114323535,0.12727983539086507,0.30889444569733215
158,0.5258128302115643,1.1009565309864944,-0.25817651443541806,-0.6584746676641284,0.39893864636621457
159,0.5478319608312943,0.7430517337541371,-0.2713460077887006,-0.2144739178682627,0.18281847987639524
160,0.562692995506377,0.5048874453583208,-0.27563548614606587,0.050900864585910255,0.07416793323402902
161,0.5727907444135434,0.6505408930245217,-0.2746174688543477,-0.23934680935936592,0.22344621308507265
162,0.5858015622740338,0.3154932915956273,-0.279404405041535,0.16466618567745356,0.07218832647267372
163,0.5921114281059463,0.5363097347999022,-0.27611108132798595,-0.23479380228259722,0.214183877742785
164,0.6028376228019443,0.1449592896921837,-0.2808069573736379,0.24984789736894142,0.05656099060161639
165,0.6057368085957879,0.500763552967775,-0.2758099994262591,-0.34443088879717454,0.18799753844856648
166,0.6157520796551434,0.12889437276789645,-0.28269861720220263,0.11222668341243736,0.01565156880803534
167,0.6183299671105014,0.01922829500933572,-0.2804540835339539,0.1881854397041091,0.001639168797180133
168,0.6187145330106881,-0.03491636081197158,-0.27669037473987174,0.18485241001944805,0.0012427673086671585
169,0.6180162057944487,-0.07612319024015221,-0.2729933265394828,0.16399870778560102,0.01045290060401647
170,0.6164937419896457,-0.21956568074659377,-0.26971335238377075,0.29192769089155957,0.0039411924912503785
171,0.6121024283747138,-0.23442368623011534,-0.26387479856593954,0.2350711459695267,0.04581193420481837
172,0.6074139546501115,-0.4292951644981091,-0.259173375646549,0.4405785993144211,0.033256427385908685
173,0.5988280513601493,-0.504580396983878,-0.2503618036602606,0.4743881044171937,0.014623089994934267
174,0.5887364434204717,-0.5305722049139627,-0.24087404157191675,0.4393204676996248,0.05493468497491159
175,0.5781249993221924,-0.6317231400697929,-0.23208763221792425,0.5165323567585374,0.04325632620873871
176,0.5654905365207965,-0.5595386812874948,-0.2217569850827535,0.34353589960340153,0.023112767235292344
177,0.5542997628950466,-0.5977796131183041,-0.21488626709068545,0.3348291478487206,0.024625866107392327
178,0.5423441706326805,-0.6359050822273171,-0.20818968413371103,0.32801058425322044,0.016063182747503565
179,0.5296260689881341,-0.6078908731209687,-0.20162947244864662,0.22613007962238807,0.020101860167420823
180,0.5174682515257147,-0.6378045270881756,-0.19710687085619885,0.21121333320779132,0.015274355965715644
181,0.5047121609839512,-0.6587146481573358,-0.19288260419204303,0.1843962837136212,0.06125849205606556
182,0.4915378680208045,-0.747660326005374,-0.1891946785177706,0.258984136459037,0.21085389353187756
183,0.476584661500697,-1.0237726121773492,-0.18401499578858987,0.6104701545199667,0.08990359275800573
184,0.45610920925715004,-1.1090725299635538,-0.17180559269819054,0.6824642436106951,0.04149706010114276
185,0.43392775865787897,-1.1441984831556837,-0.15815630782597664,0.6841147491629099,0.18464060963789997
186,0.4110437889947653,-0.9805550987637649,-0.14447401284271844,0.39540888763771026,0.11684074260992598
187,0.39143268701948997,-0.8603158718591327,-0.13656583508996423,0.1746013160844198,0.12425803869699133
188,0.3742263695823073,-0.716370576560308,-0.13307380876827582,-0.0793319644848125,0.08926805790577733
189,0.35989895805110117,-0.8353009590551836,-0.13466044805797206,0.05847803678351435,0.129710840698552
190,0.3431929388699975,-0.9851739502573091,-0.13349088732230177,0.24178168837558142,0.056355495010689864
191,0.32348945986485134,-1.0396516544975216,-0.12865525355479016,0.2836413739450368,0.04319196084060121
192,0.3026964267749009,-1.078825961308247,-0.12298242607588943,0.30419680543916217,0.15730426720135865
193,0.28111990754873595,-1.2210221714584872,-0.11689848996710618,0.47981439006591864,0.09613656222805836
194,0.2566994641195662,-1.297513175489982,-0.10730220216578781,0.5594779019618883,0.17627759118309916
195,0.23074920060976653,-1.1609531989987432,-0.09611264412655005,0.3243297004380358,0.04824906379461001
