,X,v,theta,theta_dot,energy
0,0.0,-2.0,-0.8726646259971648,0.0,1.2
1,-0.04,-2.554494963779663,-0.8726646259971648,0.30941667224975095,1.5272527601167754
2,-0.09108989927559326,-3.1090585330518943,-0.8664762925521697,0.6188994926403715,1.8544263232757725
3,-0.15327106993663114,-3.6640498378752087,-0.8540983026993623,0.93390466621657,2.1815202423959223
4,-0.2265520666941353,-4.219835424114168,-0.8354202093750309,1.2598770613681762,2.4439792638586564
5,-0.31094877517641867,-4.7623221583626805,-0.8102226681476674,1.5877569466489485,2.769188909991272
6,-0.4061952183436723,-5.309321800561165,-0.7784675292146884,1.940372138583816,3.1472036043632525
7,-0.5123816543548956,-5.869873182234898,-0.7396600864430121,2.3325893839813157,3.4264392182624244
8,-0.6297791179995935,-6.425209727603801,-0.6930082987633858,2.7497613041978877,3.751428285152636
9,-0.7582833125516695,-6.98463802728159,-0.638013072679428,3.207513575062827,3.666694975421858
10,-0.8979760730973012,-7.491694226269166,-0.5738628011781715,3.6433697427453184,4.409678455897834
11,-1.0478099576226845,-8.06518487308964,-0.5009954063232651,4.206197939223984,4.736296782963116
12,-1.2091136550844772,-8.643045287294694,-0.4168714475387854,4.82525638136343,5.063116873941651
13,-1.381974560830371,-9.225314087487476,-0.3203663199115168,5.50482034596236,5.290359735420181
14,-1.5664808425801207,-9.800666500583427,-0.2102699129922696,6.231353381653593,2.170455511327947
15,-1.762494172591789,-9.583924981327547,-0.08564284535919775,5.8520370071130365,3.839466519755607
16,-1.9541726722183401,-9.183783956116558,0.031397894783062985,5.228877081307854,2.7282108250858186
17,-2.137848351340671,-8.885926721815737,0.13597543640922005,4.791540903168877,2.6323497949367685
18,-2.315566885776986,-8.589069380428699,0.2318062544725976,4.390218771561923,2.5223838884589087
19,-2.48734827338556,-8.296027205674676,0.31961062990383604,4.029954835507531,2.3623102236116087
20,-2.6532688174990535,-8.013698746010872,0.4002097266139867,3.72028263350886,2.7837503197525084
21,-2.813542792419271,-7.67187632155689,0.47461537928416386,3.3626113488991223,2.495399819184399
22,-2.9669803188504087,-7.354561205624773,0.5418676062621464,3.073605554800137,2.539414077913584
23,-3.114071542962904,-7.020322262041948,0.6033397173581491,2.795694910395304,3.346394082519207
24,-3.254477988203743,-6.561561442616306,0.6592536155660551,2.3958626084663224,2.666143190979908
25,-3.385709217056069,-6.174125388197039,0.7071708677353815,2.116572529086967,2.7817942935986673
26,-3.5091917248200097,-5.746826938432815,0.7495023183171209,1.8203297918016341,3.033969862060722
27,-3.6241282635886662,-5.2482557988959595,0.7859089141531536,1.4731724386893863,3.0010157536562674
28,-3.7290933795665855,-4.710748227386729,0.8153723629269413,1.1113463717026817,2.037920851401268
29,-3.82330834411432,-4.307517151601714,0.8375992903609949,0.9106915217852185,2.568057117805119
30,-3.9094586871463544,-3.7511575973040774,0.8558131207966992,0.5706306112488828,2.03107221101897
31,-3.9844818390924357,-3.2483589512117015,0.8672257330216769,0.2981755010805738,1.844939959203737
32,-4.04944901811667,-2.7221533154752233,0.8731892430432884,0.011722626550700166,1.6330866421830306
33,-4.103892084426175,-2.167677093012575,0.8734236955743023,-0.29724254188154325,1.3058308118752693
34,-4.147245626286426,-1.6131460345073942,0.8674788447366715,-0.6060668043336677,0.9786539799061418
35,-4.179508546976574,-1.0582020083290682,0.8553575086499982,-0.9201990804671255,0.6515564934723026
36,-4.200672587143155,-0.502480002135581,0.8369535270406556,-1.2450739648889486,0.29540136715908016
37,-4.210722187185867,0.003885161068916343,0.8120520477428766,-1.5354383139989736,0.019653642584134472
38,-4.210644483964489,0.4097688595835292,0.7813432814628972,-1.7409608552028617,0.15550685008315682
39,-4.202449106772819,0.8200321571646716,0.74652406435884,-1.970826974338058,0.15455880842384717
40,-4.186048463629525,1.0092966876352896,0.7071075248720788,-1.9795696342215747,0.04018978028159011
41,-4.1658625298768195,0.9643615727538366,0.6675161321876474,-1.7373337230120887,0.1671548368301515
42,-4.146575298421743,1.1353138283587525,0.6327694577274056,-1.756725826237666,0.2477875318505188
43,-4.123869021854568,1.3506511411748048,0.5976349412026523,-1.8433297078581887,0.2649598755288192
44,-4.096855999031072,1.1486579889476853,0.5607683470454885,-1.4274270324811735,0.48696689990576936
45,-4.073882839252118,1.56912932690168,0.5322198063958651,-1.8051791101790327,0.533488222761865
46,-4.042500252714084,1.2234649346365467,0.4961162241922844,-1.2092100156013692,0.45507124945553185
47,-4.018030954021353,1.5899714399400067,0.471932023880257,-1.5527415959317485,0.3496868891012548
48,-3.986231525222553,1.365160435334491,0.44087719196162206,-1.118730929892389,0.7346113961006281
49,-3.958928316515863,1.8964568946938538,0.4185025733637743,-1.7140104375029181,0.877746731187903
50,-3.920999178621986,1.4286568249466276,0.3842223646137159,-0.9533886414893535,0.6438886941782704
51,-3.892426042123054,1.8719235282859685,0.36515459178392884,-1.459608503064578,0.90464515411587
52,-3.8549875715573343,1.3847106959042048,0.3359624217226373,-0.6719876664311083,0.7506067130771211
53,-3.8272933576392503,1.9162854177146387,0.3225226683940151,-1.3278466782376683,0.8804907235975256
54,-3.7889676492849573,1.4537832297589628,0.29596573482926175,-0.5766778243400799,0.503606561869964
55,-3.7598919846897783,1.7916771042879234,0.28443217834246015,-0.9757325261370902,0.17057392785013964
56,-3.72405844260402,1.6934923047777852,0.26491752781971833,-0.7518726842092929,0.48578009209414524
57,-3.6901885965084644,1.9740304505390305,0.24988007413553248,-1.08102173923917,0.5986414927801563
58,-3.6507079874976838,1.6690464865797772,0.22825963935074908,-0.5650514410143254,0.8417804852474734
59,-3.6173270577660883,2.1636473224627113,0.2169586105304626,-1.2211819265621227,1.1393560545276877
60,-3.5740541113168343,1.63575175055677,0.19253497199922012,-0.3846154278756355,0.6095451149531935
61,-3.541339076305699,1.9995187493857685,0.1848426634417074,-0.8639273696155509,0.6070169072511618
62,-3.5013487013179834,1.6957957438155868,0.1675641160493964,-0.36206884880784207,0.8197547015992812
63,-3.4674327864416714,2.1686693438867564,0.16032273907323955,-1.0124109754026684,1.1736102338095855
64,-3.4240593995639363,1.6282952358858716,0.14007451956518618,-0.1653113770607666,0.7815573878604398
65,-3.3914934948462188,2.096077291733261,0.13676829202397084,-0.8190646203227913,1.0849350888826006
66,-3.3495719490115534,1.5808973052060333,0.120386999617515,-0.013426294123367488,0.879876962876626
67,-3.317954002907433,2.1218179953635636,0.12011847373504765,-0.7836263964483564,0.9771911744361886
68,-3.2755176430001613,1.6637311657292324,0.10444594580608052,-0.06621733649663486,0.871418836194858
69,-3.2422430196855765,2.1737589150761525,0.10312159907614782,-0.7964385419874661,1.1899895316529292
70,-3.1987678413840532,1.6296905260998398,0.0871928282363985,0.045592687006841714,0.8515094204638252
71,-3.1661740308620563,2.1372737568560503,0.08810468197653533,-0.6872875599847877,1.1222052591856848
72,-3.1234285557249355,1.6165216303896432,0.07435893077683957,0.11668014001491356,0.8673374062681954
73,-3.091098123117143,2.1370020300966566,0.07669253357713784,-0.6400416690653004,1.0058275551575067
74,-3.0483580825152097,1.6706232156436807,0.06389170019583183,0.07999572813204536,0.7705194816207297
75,-3.014945618202336,2.1185685923710507,0.06549161475847275,-0.5717799859732737,1.0778680985688396
76,-2.972574246354915,1.6152941358413253,0.05405601503900727,0.20075408549328266,0.9445513139465345
77,-2.9402683636380886,2.1816944899064223,0.058071096748872925,-0.6317207292646833,1.2188620826183694
78,-2.8966344738399603,1.6287124149416625,0.04543668216357926,0.21341748824987228,0.8692338573987356
79,-2.864060225541127,2.1455832469016336,0.049705031928576705,-0.547734801908974,1.0950129196936296
80,-2.821148560603094,1.6412285003242952,0.038750335890397225,0.22247023281922274,0.9383882057586367
81,-2.7883239905966084,2.1950156216624634,0.04319974054678168,-0.5961971091328057,1.11691085955594
82,-2.744423678163359,1.691850427318211,0.03127579836412557,0.17054330380619054,0.8379886528831725
83,-2.710586669616995,2.1723940766536423,0.034686664440249385,-0.5407260711676832,1.2812578666593948
84,-2.667138788083922,1.5899708299957016,0.02387214301689572,0.34257912271202073,0.6473673944238887
85,-2.635339371484008,1.982989901235408,0.030723725471136134,-0.2397637686174232,0.44961280382205465
86,-2.5956795734593,1.7601400473633941,0.02592845009878767,0.10338460998939092,0.6398437044240657
87,-2.560476772512032,2.1134595929772777,0.02799614229857549,-0.4187944597404385,0.9542164228288688
88,-2.5182075806524864,1.6686033122046995,0.019620253103766718,0.2564582657517077,0.817351763313685
89,-2.4848355144083922,2.1428897251859103,0.02474941841880087,-0.4490664398284544,1.1343689067833596
90,-2.441977719904674,1.62114463900707,0.015768089622231782,0.3405870980386796,0.9307208468364971
91,-2.409554827124533,2.1757236083780147,0.022579831583005375,-0.4865423170824901,1.1189791188886986
92,-2.3660403549569726,1.6685141531941525,0.012848985241355573,0.28071583023379265,0.7465836234844815
93,-2.3326700718930895,2.101553649730842,0.018463301846031427,-0.3650122976383686,1.250978423277967
94,-2.2906389988984728,1.5159400708318507,0.011163055893264055,0.5186862534008796,0.797902455477863
95,-2.260320197481836,2.0214194920023782,0.021536780961281646,-0.23620376628491302,0.7206860896910317
96,-2.219891807641788,1.67143774907537,0.016812705635583385,0.294978427147465,0.7601855579542267
97,-2.186463052660281,2.111375039867149,0.022712274178532686,-0.35989154180551064,0.9556527617139706
98,-2.1442355518629377,1.6660401907849087,0.015514443342422473,0.3146152801426687,0.8252882741734058
99,-2.1109147480472394,2.1449757513621446,0.021806748945275848,-0.39914053998644095,1.1137517007191178
100,-2.0680152330199966,1.6337906123480916,0.013823938145547028,0.37386553728798344,0.8965884362017302
101,-2.0353394207730346,2.163469385195775,0.021301248891306697,-0.4165125981103299,1.2334548806014518
102,-1.9920700330691192,1.6020539017320345,0.012970996929100097,0.4316816740492059,0.7705805687415606
103,-1.9600289550344785,2.0654512441367943,0.021604630410084216,-0.25954250038724025,0.9048302201564563
104,-1.9187199301517426,1.6353090055161574,0.01641378040233941,0.3918715507167645,0.7857497846690874
105,-1.8860137500414194,2.0987878532545454,0.024251211416674703,-0.2984276380961526,0.8246578472869232
106,-1.8440379929763284,1.7126281967111547,0.018282658654751652,0.28777068084736823,0.5270424306921325
107,-1.8097854290421054,2.0103182073953483,0.024038072271699018,-0.15331490663459918,0.6951100187694474
108,-1.7695790648941985,1.6714776115048087,0.020971774139007034,0.3618656630134231,0.8275788535090625
109,-1.7361495126641022,2.1495005773285634,0.028209087399275495,-0.3488458604918327,1.0310173880807127
110,-1.6931595011175309,1.67769490575057,0.02123217018943884,0.366873456914282,1.016619458882522
111,-1.6596056030025195,2.2627398431414942,0.02856963932772448,-0.5042543616540187,1.3417827627662904
112,-1.6143508061396896,1.677926688684447,0.018484552094644106,0.3810057217214786,1.017144470883973
113,-1.5807922723660006,2.2630154988490334,0.02610466652907368,-0.49104341467325685,1.3444202677102852
114,-1.53553196238902,1.6773107744049929,0.01628379823560854,0.3948882413629604,0.8721876023757581
115,-1.5019857469009201,2.179008660057247,0.02418156306286775,-0.3527715907674126,0.995500930754336
116,-1.4584055736997752,1.7296639427136924,0.017126131247519497,0.32815711647941237,1.0063162814692908
117,-1.4238122948455014,2.2921645506840296,0.023689273577107744,-0.5104352241299082,1.3221315807436769
118,-1.3779690038318209,1.7233645856625404,0.01348056909450958,0.34948932955122836,0.8957199135431632
119,-1.34350171211857,2.225609217610139,0.020470355685534146,-0.39984599904625984,1.0619704311327567
120,-1.2989895277663672,1.7559796040792226,0.012473435704608949,0.3104686970753482,1.0620540495524218
121,-1.2638699356847827,2.341161100353443,0.018682809646115912,-0.5635681684189201,1.1749227356577843
122,-1.2170467136777139,1.8458812109771228,0.00741144627773751,0.18471443881089444,1.0579341924889027
123,-1.1801290894581715,2.4023947179880567,0.0111057350539554,-0.647853949781493,1.1238469680385876
124,-1.1320811950984104,1.9401875403413897,-0.0018513439416744607,0.04867908055967485,1.0106050684581334
125,-1.0932774442915827,2.4478107897173866,-0.0008777623304809637,-0.7132987834133542,1.292369270864531
126,-1.044321228497235,1.9258168439340682,-0.015143737998748049,0.06943377153540131,0.7682264349488537
127,-1.0058048916185536,2.3145706102844326,-0.013755062568040023,-0.5180821025742746,0.9918569606821832
128,-0.9595134794128649,1.8923980102176436,-0.024116704619525517,0.11107303075097974,1.0543628867541255
129,-0.921665519208512,2.4348422847319666,-0.02189524400450592,-0.7094463958864361,1.3674896560521663
130,-0.8729686735138726,1.8798783490294428,-0.03608417192223464,0.11636329022856373,1.131098618197665
131,-0.8353711065332838,2.4657049874736527,-0.03375690611766337,-0.7724110846339033,1.4431277047298006
132,-0.7860570067838107,1.8869716975923632,-0.049205127810341434,0.0852716391305216,0.7334408872809548
133,-0.7483175728319634,2.266038940709532,-0.047499695027731,-0.49710150273517395,1.0810703452903887
134,-0.7029967940177728,1.796664894350879,-0.057441725082434475,0.19220579782208902,0.9872270463280368
135,-0.6670634961307552,2.330841481864164,-0.05359760912599269,-0.6246161210411507,1.3603682606519394
136,-0.6204466664934719,1.7552973910266552,-0.06608993154681571,0.2217101326735499,0.822491072082659
137,-0.5853407186729388,2.210637393418922,-0.06165572889334471,-0.4792250592339229,0.92778341553706
138,-0.5411279708045603,1.7981003841139236,-0.07124023007802317,0.12028935282357645,0.7701697554161892
139,-0.5051659631222818,2.215576285133325,-0.06883444302155164,-0.5252630155421769,1.000988683325373
140,-0.4608544374196153,1.771130684390176,-0.07933970333239518,0.11960526278911232,0.8026655481603923
141,-0.42543182373181176,2.212851085062473,-0.07694759807661293,-0.5641924381131826,1.286533047509152
142,-0.3811748020305623,1.6403350183055798,-0.08823144683887658,0.2694402683528503,0.8760891698346719
143,-0.3483681016644507,2.1585105945753185,-0.08284264147181958,-0.5307060450645152,1.1510309859313108
144,-0.3051978897729443,1.6338303785769952,-0.09345676237310989,0.2292873132805674,0.8394714883046077
145,-0.2725212822014044,2.1329497687051893,-0.08887101610749853,-0.5435609156019646,0.7133097293269933
146,-0.22986228682730064,1.8043076400200515,-0.09974223441953783,-0.07863686625885569,0.3734332981327044
147,-0.1937761340268996,2.007898733355935,-0.10131497174471495,-0.4117813127304265,0.7671645552835304
148,-0.1536181593597809,1.6333631856509534,-0.10955059799932347,0.11740542722594471,0.5922111856424903
149,-0.12095089564676184,1.9871940390947311,-0.10720248945480458,-0.4423026968382,0.5246493869879277
150,-0.08120701486486723,1.7287240339656211,-0.11604854339156859,-0.08828057984026211,0.3859607617381339
151,-0.046632534185554804,1.948478221744171,-0.11781415498837383,-0.4497364789288225,0.4667798018032663
152,-0.007662969750671385,1.7141883128773716,-0.12680888456695028,-0.13529507290744808,0.1520932519472038
153,0.02662079650687605,1.8027527462979442,-0.12951478602509925,-0.3042570078162081,0.1005454129124863
154,0.06267585143283494,1.859338629877691,-0.1355999261814234,-0.4263959298929226,0.06487793493124581
155,0.09986262403038876,1.8268819827978375,-0.14412784477928187,-0.4179021852033583,0.052095094934382594
156,0.1364002636863455,1.8008259307630912,-0.15248588848334904,-0.4214503838902225,0.025177287029688307
157,0.17241678230160734,1.7891875760373201,-0.16091489616115348,-0.44885273863024006,0.11652163732771638
158,0.20820053382235376,1.8555593165709654,-0.16989195093375828,-0.5942292526458777,0.1183386812481255
159,0.24531172015377306,1.7948934403207488,-0.18177653598667584,-0.5542488462867681,0.01831652244554993
160,0.28120958896018805,1.8074542336216533,-0.19286151291241121,-0.6259280848217711,0.4775865490963868
161,0.3173586736326211,1.5489467748406471,-0.20538007460884664,-0.30170650115671105,0.030553874418743177
162,0.34833760912943407,1.5711370745562965,-0.21141420463198085,-0.3942505513692069,0.14376128624584292
163,0.37976035062056,1.4840527033451907,-0.219299215659365,-0.3282261686898411,0.005093056425896457
164,0.4094414046874638,1.4836949714965337,-0.22586373903316181,-0.3916608510721862,0.16320135223812585
165,0.43911530411739447,1.378594968653375,-0.23369695605460553,-0.30385577778446154,0.12355947093108025
166,0.46668720349046194,1.2938364995227525,-0.23977407161029476,-0.24825728285177404,0.09374426105105738
167,0.492563933480917,1.2261191632735453,-0.24473921726733025,-0.2194072512294991,0.08436002717300738
168,0.5170863167463879,1.162096266858741,-0.24912736229192023,-0.19747185411112197,0.1960558539696131
169,0.5403282420835628,1.0003983061945876,-0.2530767993741427,-0.03490099174248534,0.29893178088607675
170,0.5603362082074546,1.2944982481555873,-0.25377481920899236,-0.5356116669925572,0.5122000546098346
171,0.5862261731705664,0.9065309935879085,-0.2644870525488435,-0.046111270896891765,0.10871660526367816
172,0.6043567930423245,1.0268103158256017,-0.2654092779667814,-0.29711226679714314,0.2748718495105644
173,0.6248929993588365,0.7672045199301998,-0.2713515233027242,0.0015439240120762587,0.04829775012248899
174,0.6402370897574404,0.8319794110942303,-0.2713206448224827,-0.17086511938158766,0.13487551435786782
175,0.656876677979325,0.6768951510695181,-0.27473794721011446,-0.025541891625818297,0.0573936891094414
176,0.6704145810007154,0.7630342925525329,-0.27524878504263084,-0.2296654502979388,0.2616781994120954
177,0.685675266851766,0.42953321409410866,-0.2798420940485896,0.17185030994315872,0.14126418026408605
178,0.6942659311336482,0.7469033192972465,-0.27640508784972645,-0.36688980017923967,0.19957276614093317
179,0.7092039975195932,0.48565674374288775,-0.28374288385331126,-0.07012655301159088,0.11013240813340673
180,0.718917132394451,0.26811562306639236,-0.28514541491354306,0.16083179862463515,0.03261224500738033
181,0.7242794448557789,0.15698220054958184,-0.28192877894105034,0.23809939011394182,0.008709072533112306
182,0.7274190888667705,0.21125308448217986,-0.2771667911387715,0.07811354904784573,0.024994048481874413
183,0.7316441505564142,0.10203343626664697,-0.2756045201578146,0.15524268473399294,0.018346244918429098
184,0.7336848192817471,-0.057821947987819686,-0.2724996664631348,0.3059707198452397,0.004280197138723552
185,0.7325283803219907,0.03937147526935848,-0.26638025206623,0.08643300003848028,0.011059013856180074
186,0.7333158098273779,-0.20571410968274628,-0.2646515920654604,0.36370227411834377,0.0050515636897568005
187,0.7292015276337229,-0.1763004365417546,-0.25737754658309353,0.244215413718477,0.012503205525996998
188,0.7256755189028878,-0.0994698185023617,-0.252493238308724,0.05792925586316597,0.014934942208065646
189,0.7236861225328406,-0.24567130687756356,-0.2513346531914607,0.19683121737402484,0.03700833450182344
190,0.7187726963952893,-0.39389920832670033,-0.2473980288439802,0.33907050224875934,0.0826405191627713
191,0.7108947122287553,-0.6023692304609365,-0.24061661879900503,0.5702592470108385,0.12057992893471016
192,0.6988473276195366,-0.8021193700362337,-0.22921143385878825,0.7911919703454677,0.10110322039355524
193,0.6828049402188119,-0.6709843797713821,-0.2133875944518789,0.5328344299924483,0.10429595407329206
194,0.6693852526233842,-0.5114006033182485,-0.20273090585202994,0.23662708481939826,0.0697654847346095
195,0.6591572405570193,-0.3730993661023888,-0.19799836415564198,-0.025771681663914026,0.05318353555631761
196,0.6516952532349716,-0.5085916735597978,-0.19851379778892025,0.11566404681439038,0.06240627487924407
197,0.6415234197637756,-0.6264233435495968,-0.19620051685263246,0.23095987956882175,0.06945608022412138
