,X,v,theta,theta_dot,energy
0,0.0,-2.0,0.17453292519943295,0.0,1.2
1,-0.04,-2.586524300172064,0.17453292519943295,0.9174730814433393,0.9171633187282398
2,-0.09173048600344128,-2.238086497989304,0.19288238682829972,0.4538092721292429,0.2213740123910307
3,-0.13649221596322736,-2.337857618340912,0.2019585722708846,0.6570471431117266,0.6193597287692726
4,-0.1832493683300456,-2.0796159175271134,0.21509951513311912,0.3365305202148324,0.09125113343680637
5,-0.22484168668058788,-2.039598055930347,0.22183012553741577,0.3406397632088584,0.30914438992165966
6,-0.2656336477991948,-1.894189441535563,0.22864292080159293,0.1925558771854595,0.40124679987466816
7,-0.30351743662990605,-1.6905152125693754,0.23249403834530213,-0.03836764181357383,0.0506349492542472
8,-0.3373277408812936,-1.7227974523059724,0.23172668550903067,0.07649199773082467,0.4020469697312408
9,-0.371783689927413,-1.4987416659001191,0.23325652546364717,-0.18308903228244416,0.0032321459510761333
10,-0.4017585232454154,-1.5040313039828805,0.2295947448179983,-0.10741220855154598,0.18522959950704512
11,-0.431839149325073,-1.3878742559484705,0.22744650064696736,-0.21016623449136174,0.1282721007718831
12,-0.4595966344440424,-1.3017671972641682,0.22324317595714013,-0.26970612335122435,0.14087988376001948
13,-0.48563197838932576,-1.2005896033663992,0.21784905349011566,-0.35261668237529487,0.09949523201828266
14,-0.5096437704566538,-1.2831172907954247,0.21079671984260975,-0.1682087897181871,0.3411245263029179
15,-0.5353061162725623,-1.028991317893634,0.20743254404824601,-0.47944366778880576,0.25164672767167184
16,-0.555885942630435,-1.264846236394083,0.1978436706924699,-0.07269659716679355,0.44989186790579466
17,-0.5811828673583167,-0.9224501363874557,0.196389738749134,-0.5184845855562465,0.1775549455183193
18,-0.5996318700860658,-1.1078193592544718,0.1860200470380091,-0.1884075127687554,0.3310882466158431
19,-0.6217882572711552,-0.8217593644441494,0.18225189678263398,-0.5557198603813017,0.42150336441412434
20,-0.6382234445600381,-1.3088099301704625,0.17113749957500796,0.2160421438478094,0.7794821585928399
21,-0.6643996431634474,-0.7270775864825163,0.17545834245196415,-0.5937399948039862,0.37318335319097506
22,-0.6789411948930977,-1.211474828042573,0.16358354255588442,0.1730206571740024,0.6757895877704108
23,-0.7031706914539492,-0.6671052390573562,0.16704395569936448,-0.5847533889387966,0.35917377733497996
24,-0.7165127962350963,-1.1737752179680045,0.15534888792058854,0.21355558939500963,0.6399088916826329
25,-0.7399883005944564,-0.6406398643692146,0.15961999970848872,-0.5310280148785588,0.2606238294078483
26,-0.7528010978818407,-1.024786286742991,0.14899943941091756,0.08459582865801618,0.5474079013439613
27,-0.7732968236167005,-0.5046492085761323,0.15069135598407787,-0.6433212648344675,0.27641974369006944
28,-0.7833898077882231,-1.0112870639764284,0.13782493068738852,0.15215910502297325,0.548778692198191
29,-0.8036155490677517,-0.4809397321167521,0.14086811278784797,-0.5954257367030794,0.27217835655029493
30,-0.8132343437100867,-1.005093678849482,0.12895959805378637,0.22429554864247347,0.5953337169536836
31,-0.8333362172870764,-0.4238795157039613,0.13344550902663585,-0.602477171586567,0.2190020838255082
32,-0.8418138076011557,-0.8988120767452802,0.12139596559490451,0.14270462531751915,0.38623063216733733
33,-0.8597900491360613,-0.47872843943024107,0.12425005810125489,-0.4471806396943657,0.2120248616628095
34,-0.8693646179246661,-0.8946121601738608,0.11530644530736757,0.20827139822418483,0.48977752542373676
35,-0.8872568611281434,-0.35697255978748577,0.11947187327185127,-0.5590077438271739,0.21450135045861118
36,-0.8943963123238932,-0.9055778863049067,0.1082917183953078,0.293075559268108,0.5056666805686322
37,-0.9125078700499913,-0.354726162821841,0.11415322958066995,-0.496586266183916,0.2262982537620481
38,-0.9196023933064281,-0.941130848356508,0.10422150425699163,0.4107841291199702,0.5535410087356823
39,-0.9384250102735583,-0.3576937897617344,0.11243718683939104,-0.42903705507829726,0.19789598474113335
40,-0.945578886068793,-0.8708093108835041,0.1038564457378251,0.36876312472100925,0.5124865363149324
41,-0.9629950722864631,-0.2873672870977281,0.11123170823224528,-0.47120539275371975,0.16862189582891943
42,-0.9687424180284177,-0.8214150993109584,0.10180760037717088,0.35755053529630865,0.4177128412214977
43,-0.9851707200146368,-0.3171507139953368,0.10895861108309705,-0.36504972658733004,0.16258616254942082
44,-0.9915137342945435,-0.7936821109311332,0.10165761655135046,0.37747902199966676,0.46597157438666204
45,-1.0073873765131662,-0.21018974443368577,0.10920719699134379,-0.4634050563823725,0.1303455177102215
46,-1.01159117140184,-0.7614154714161883,0.09993909586369634,0.39055104122420625,0.446255296877106
47,-1.0268194808301638,-0.17788355573880243,0.10775011668818046,-0.45104610113551735,0.11896585144199028
48,-1.0303771519449398,-0.7642652085985363,0.09872919466547012,0.4550426309590928,0.4382723431767547
49,-1.0456624561169106,-0.1911132437475478,0.10783004728465197,-0.37151938885132896,0.12440116529370612
50,-1.0494847209918614,-0.7758881705341748,0.10039965950762539,0.5321890517213687,0.4024275063869209
51,-1.065002484402545,-0.2554665410808872,0.11104344054205276,-0.21504433797868816,0.14615179513835969
52,-1.0701118152241627,-0.7942494135541908,0.10674255378247899,0.6207321532900447,0.4597285703804316
53,-1.0859968034952465,-0.21084729399283308,0.11915719684827988,-0.21806755713473125,0.13081090207525253
54,-1.0902137493751032,-0.7902100044072081,0.11479584570558526,0.6797636451444966,0.35435487951400413
55,-1.1060179494632474,-0.3370655183978278,0.12839111860847519,0.038196583514958915,0.010253102715302807
56,-1.112759259831204,-0.36867774363488526,0.12915505027877436,0.12286799838403895,0.0929121912256632
57,-1.1201328147039016,-0.12119081711318289,0.13161241024645515,-0.20740433569101752,0.06666207717453444
58,-1.1225566310461652,-0.6206331843656535,0.1274643235326348,0.5738625719386061,0.3406686554305787
59,-1.1349692947334782,-0.06426395638266469,0.1389415749714069,-0.21654776398352515,0.035510462561555156
60,-1.1362545738611314,-0.5336373592237904,0.1346106196917364,0.5214449302139251,0.2557434639732052
61,-1.1469273210456072,-0.04708304334129626,0.1450395182960149,-0.16232812984796308,0.02896882460790705
62,-1.1478689819124333,-0.567996398932769,0.14179295569905565,0.653329941316234,0.25648960920779373
63,-1.1592289098910886,-0.10604089873476791,0.15485955452538033,0.00889840455699531,0.01666235999403794
64,-1.161349727865784,0.04538881570039113,0.15503752261652023,-0.1701810213307407,0.017510829925295922
65,-1.1604419515517763,-0.40862301880344276,0.1516339021899054,0.548067073186175,0.21472004055018806
66,-1.1686144119278452,0.1338772326804888,0.1625952436536289,-0.21193627399682047,0.05286038484053442
67,-1.1659368672742354,-0.282275593028642,0.15835651817369248,0.4516523367523212,0.15721062616923814
68,-1.1715823791348083,0.2998291594599536,0.1673895649087389,-0.36421718601407627,0.15914779086922315
69,-1.1655857959456093,-0.24907540567274566,0.16010522118845738,0.496614679772196,0.13608537069363896
70,-1.1705673040590643,0.3329892575086788,0.1700375147839013,-0.3184457610450102,0.16773868784531873
71,-1.1639075189088908,-0.18176682790654786,0.1636685995630011,0.4923034534437124,0.09582405190125459
72,-1.1675428554670217,0.40020145897265025,0.17351466863187534,-0.3210789588741827,0.20396250065382282
73,-1.1595388262875688,-0.11684777782788813,0.1670930894543917,0.4936066449477984,0.056113859114871774
74,-1.1618757818441265,0.4575097939638125,0.17696522235334766,-0.30703348930381424,0.17333674635271723
75,-1.1527255859648502,0.07482995954449467,0.1708245525672714,0.30977813927024433,0.05321899973379738
76,-1.1512289867739602,0.6565791232311601,0.17702011535267628,-0.5001659908028676,0.30335280498286155
77,-1.138097404309337,0.18852622295685806,0.16701679553661894,0.2427143635577501,0.11781540910286054
78,-1.1343268798502,0.7614628733028063,0.17187108280777394,-0.5558570941939712,0.4419272372894078
79,-1.1190976223841438,0.17498714523400538,0.1607539409238945,0.36117691864247914,0.1147097868980534
80,-1.1155978794794636,0.7570163444173986,0.1679774792967441,-0.4535522602991551,0.29356045766096683
81,-1.1004575525911158,0.3667098041464967,0.158906434090761,0.17282061956581818,0.2181594741839585
82,-1.093123356508186,0.9318197975271654,0.16236284648207736,-0.617642446823628,0.542452230606603
83,-1.0744869605576426,0.34534763610509445,0.1500099975456048,0.2980211711815888,0.21524148503587162
84,-1.0675800078355406,0.92765557135758,0.15597042096923658,-0.5216936738374076,0.4091294183037348
85,-1.049026896408389,0.4848427628867609,0.14553654749248843,0.18013236034740243,0.25452564486869
86,-1.0393300411506539,0.9857650371055331,0.14913919469943648,-0.5206707453939194,0.4043675194613247
87,-1.0196147404085432,0.574419461212242,0.1387257797915581,0.1331828724796238,0.3482483685702058
88,-1.0081263511842984,1.1570084756758026,0.14138943724115058,-0.6916505639992115,0.575758273495793
89,-0.9849861816707823,0.6568762545116325,0.12755642596116634,0.09249178797468205,0.36203141867156224
90,-0.9718486565805496,1.188744959022025,0.12940626172065997,-0.6614297042495751,0.5944751240243651
91,-0.9480737574001091,0.687125234559298,0.11617766763566847,0.12264792879351871,0.4155970569773921
92,-0.9343312527089231,1.2702682557682605,0.11863062621153884,-0.7120906688871391,0.7428610791661138
93,-0.908925887593558,0.6838765408057493,0.10438881283379606,0.1961104970629992,0.4016623138337754
94,-0.895248356777443,1.2476210704723774,0.10831102277505604,-0.6142685239410156,0.4878974352453953
95,-0.8702959353679954,0.8562429961291691,0.09602565229623573,0.0011396455233040337,0.5064024938665656
96,-0.853171075445412,1.4314514711162696,0.09604844520670182,-0.8295099817373562,0.7101916243892001
97,-0.8245420460230867,0.9334062574986821,0.07945824557195469,-0.05769063157973142,0.4779381167979499
98,-0.805873920873113,1.4329922969926994,0.07830443294036006,-0.781369140403797,0.7339549794999889
99,-0.777214074933259,0.9197918795650182,0.06267705013228411,0.009070626824293382,0.5521220213159961
100,-0.7588182373419586,1.5040934752431867,0.06285846266876997,-0.8472458066107278,0.8793838218776819
101,-0.728736367837095,0.9180417149687754,0.04591354653655542,0.04856392630270212,0.4753070917711156
102,-0.7103755335377194,1.4212087484698817,0.04688482506260946,-0.6918973957657345,0.5758474013060105
103,-0.6819513585683218,1.0163871832060403,0.03304687714729477,-0.07155324158963916,0.3707185349746274
104,-0.661623614904201,1.3728723457699243,0.031615812315501986,-0.5962750114187717,0.5145179020143495
105,-0.6341661679888024,0.9994623415927695,0.01969031208712655,-0.027146415593176876,0.4826736752062818
106,-0.614176921156947,1.4709034366984883,0.019147383775263014,-0.7283823987398127,0.6767155506944884
107,-0.5847588524229772,1.0114695129213436,0.00457973580046676,-0.03372885139461279,0.5050255482473747
108,-0.5645294621645504,1.4992633627766765,0.0039051587725745045,-0.7640655153385514,0.7733684257264107
109,-0.5345441949090168,0.9840251611927611,-0.011376151534196523,0.009934007666420275,0.3900443567976123
110,-0.5148636916851617,1.3707159531692648,-0.011177471380868118,-0.5734091638930884,0.5170277618365918
111,-0.48744937262177634,0.9957485933991719,-0.022645654658729884,-0.014279367185656366,0.3619371606919125
112,-0.46753440075379293,1.3509082052144097,-0.022931242002443012,-0.5535394429542796,0.4815958191403655
113,-0.44051623664950473,0.9968429147044005,-0.0340020308615286,-0.02932233214571367,0.46001416022090125
114,-0.4205793783554167,1.448110073945381,-0.034588477504442876,-0.715826484280555,0.7391427962197539
115,-0.3916171768765091,0.9392275191688224,-0.04890500719005397,0.03687380242562255,0.49640782918199067
116,-0.37283262649313265,1.4545570103403431,-0.04816753114154152,-0.7495685749622863,0.5596979410128105
117,-0.3437414862863258,1.0708912908470647,-0.06315890264078725,-0.18889325580688965,0.2227249461608253
118,-0.3223236604693845,1.2762773104259943,-0.06693676775692504,-0.5149143931403812,0.40986870363905165
119,-0.2967981142608646,0.9581725680552087,-0.07723505561973266,-0.05849055642098233,0.5172371890781325
120,-0.27763466289976046,1.4871561340681867,-0.07840486674815231,-0.8722849782232122,0.5934821526925353
121,-0.24789154021839674,1.0884355699393415,-0.09585056631261656,-0.299068909674306,0.012756856212573569
122,-0.2261228288196099,1.0782218975802667,-0.10183194450610268,-0.3119556609423966,0.028103029726314937
123,-0.20455839086800456,1.053915466516459,-0.10807105772495061,-0.30557176557672056,0.10713342495089623
124,-0.1834800815376754,1.1558463472767468,-0.11418249303648502,-0.48928716956696916,0.22956712204111246
125,-0.16036315459214046,0.9600852644985858,-0.1239682364278244,-0.231054419367817,0.0837248664210153
126,-0.14116144930216873,1.0477525663069547,-0.12858932481518073,-0.39789958445844376,0.1748300540507316
127,-0.12020639797602964,0.8841274174151807,-0.13654731650434962,-0.1921894105239501,0.2676603101474496
128,-0.10252384962772602,1.1839246990772105,-0.14039110471482863,-0.6777197903328441,0.2698231350314892
129,-0.07884535564618181,0.9579518047841655,-0.1539455005214855,-0.3832348854179172,0.10637537154255904
130,-0.059686319550498496,0.8499713728145094,-0.16161019822984385,-0.26826115662991246,0.07018515297313856
131,-0.04268689209420831,0.9337949295517824,-0.1669754213624421,-0.4396649371709823,0.1391693520657035
132,-0.02401099350317266,0.7878753577401929,-0.17576872010586173,-0.27269273831635044,0.048818094757434226
133,-0.008253486348368803,0.729062369214334,-0.18122257487218874,-0.23724283452405195,0.022827655015020903
134,0.006327761035917876,0.7625135188911827,-0.18596743156266976,-0.3395861540390921,0.04459961688962036
135,0.02157803141374153,0.70701633571274,-0.1927591546434516,-0.3121355436863077,0.11413927783115084
136,0.035718358127996334,0.5494548220255312,-0.19900186551717777,-0.13649136839087084,0.07954905033805137
137,0.04670745456850696,0.6946427063220769,-0.20173169288499518,-0.40809628943756276,0.2708021870263919
138,0.0606003086949485,0.30801666315810133,-0.20989361867374642,0.10117456940016006,0.1603593857402773
139,0.06676064195811053,0.8099520025815219,-0.20787012728574322,-0.6964611629200188,0.3399946374832155
140,0.08295968200974096,0.38827192149605755,-0.2217993505441436,-0.13823214469303413,0.039199961551197614
141,0.09072512043966212,0.2916107440452256,-0.2245639934380043,-0.06146787672044855,0.02430445019731075
142,0.09655733532056662,0.37649460412044483,-0.22579335097241326,-0.2510649898730627,0.09003445148980997
143,0.10408722740297552,0.14007318941308627,-0.2308146507698745,0.028744817801586442,0.013790237031951966
144,0.10688869119123724,0.23807622311272475,-0.23023975441384278,-0.1816197933876252,0.07288627337711623
145,0.11165021565349173,-0.06669433332393004,-0.23387215028159528,0.19637845820557906,0.021912017045651773
146,0.11031632898701313,0.3036092560838835,-0.2299445811174837,-0.41208871476397224,0.08771743694001931
147,0.1163885141086908,0.008013239452717591,-0.23818635541276315,-0.04737477935727741,0.001886666351661968
148,0.11654877889774516,-0.2983258418933505,-0.2391338509999087,0.3297942297517648,0.1531216833850041
149,0.11058226205987814,0.22925722679202537,-0.2325379664048734,-0.5086978159089404,0.10150356020705843
150,0.11516740659571865,-0.24463765034498414,-0.2427119227230522,0.11526024928362189,0.056429065169369026
151,0.11027465358881897,-0.47015858086142703,-0.24040671773737976,0.37296777329855957,0.1570577654597993
152,0.10087148197159043,-0.1305391584066412,-0.23294736227140858,-0.19181151243038486,0.06915253256873272
153,0.09826069880345761,-0.6107552064481538,-0.23678359252001627,0.4411879700191891,0.08157784772536297
154,0.08604559467449453,-0.47347001119715826,-0.22795983311963247,0.1720403859045997,0.1514877391834286
155,0.07657619445055136,-0.7864047119431492,-0.22451902540154048,0.5628575232181139,0.2532696372802787
156,0.06084810021168838,-0.46003391024108686,-0.2132618749371782,0.020133122921896285,0.20141155389926882
157,0.05164742200686664,-0.8836514457779117,-0.21285921247874026,0.578939509381746,0.06781942682542855
158,0.033974393091308404,-0.803894772681204,-0.20128042229110535,0.3998954558407998,0.062419938116157245
159,0.017896497637684323,-0.7238798518184436,-0.19328251317428935,0.22351848352305667,0.19903984999029473
160,0.0034189006013154496,-0.9924650740172933,-0.18881214350382822,0.5624224281125003,0.11060519718983927
161,-0.016430400879030416,-0.8786204045034632,-0.1775636949415782,0.3395087847361291,0.15382758881863057
162,-0.034002808969099685,-1.0495717425737885,-0.1707735192468556,0.5399741377101707,0.09107328432861114
163,-0.05499424382057545,-1.1336947278529081,-0.15997403649265218,0.6143593543837077,0.01983560554259543
164,-0.07766813837763362,-1.1489652592049957,-0.14768684940497803,0.5901406599433705,0.052182419383183
165,-0.10064744356173352,-1.1922168155492308,-0.13588403620611061,0.6110494824810473,0.02479114947818375
166,-0.12449177987271814,-1.2110826699078419,-0.12366304655648967,0.5992603269752609,0.07517101493978079
167,-0.148713433270875,-1.147502344774345,-0.11167784001698446,0.4683537978878548,0.08773342382341298
168,-0.1716634801663619,-1.07001529198643,-0.10231076405922736,0.32008219771921465,0.16258018123501866
169,-0.1930637860060905,-1.218724160088326,-0.09590912010484307,0.5119521449932958,0.10158747920801353
170,-0.21743826920785703,-1.1345391873629969,-0.08567007720497714,0.35810095406387304,0.1263700946471369
171,-0.24012905295511697,-1.2435130543696202,-0.07850805812369968,0.4958060677753833,0.019252200315676524
172,-0.26499931404250937,-1.2577866607491992,-0.06859193676819202,0.49409286353598114,0.03675304363445106
173,-0.29015504725749336,-1.22780773329806,-0.058710079497472395,0.4290799956507231,0.11997064713957803
174,-0.3147112019234546,-1.3238184983480283,-0.05012847958445793,0.5555971626578706,0.2199734624812678
175,-0.34118757189041515,-1.1578837493417828,-0.03901653633130052,0.29227610088207967,0.12504733993532247
176,-0.3643452468772508,-1.2639007335431174,-0.033171014313658924,0.4397125995105928,0.02777582803636794
177,-0.3896232615481131,-1.2852145202570966,-0.024376762323447067,0.4619152023908272,0.11642077660267877
178,-0.41532755195325505,-1.1950312959545697,-0.015138458275630524,0.3195144975323737,0.25546114393091046
179,-0.43922817787234647,-1.405933321736722,-0.00874816832498305,0.6313807503851638,0.37088853270822036
180,-0.4673468443070809,-1.1430815317275833,0.0038794466827202275,0.23454622371726863,0.19186620064395044
181,-0.49020847494163255,-1.3084345070247245,0.0085703711570656,0.48371437469420075,0.4345169306844178
182,-0.516377165082127,-0.9790309185363473,0.018244658650949618,-0.007853203542966758,0.44567912513058683
183,-0.535957783452854,-1.4232415954801965,0.018087594580090283,0.6637155495213676,0.5858828375834007
184,-0.564422615362458,-1.0131947849800071,0.031361905570517636,0.054063407396365726,0.38165277771682526
185,-0.5846865110620582,-1.3820058531067982,0.03244317371844495,0.6162268573302468,0.7477327755870273
186,-0.6123266281241941,-0.843736221596801,0.04476771086504988,-0.1812160866944419,0.4547611752252457
187,-0.6292013525561302,-1.365059300166271,0.04114338913116104,0.6131423666941862,0.6326176882199255
188,-0.6565025385594556,-0.9041452414358668,0.05340623646504477,-0.06555089088960642,0.4500013161274823
189,-0.674585443388173,-1.3887855693556002,0.05209521864725264,0.6760670901185643,0.7289365574852009
190,-0.7023611547752849,-0.86597360901711,0.06561656044962393,-0.09177787435840112,0.341464887583269
191,-0.7196806269556272,-1.2496461025565313,0.06378100296245591,0.501769803025067,0.44313717333608915
192,-0.7446735490067578,-0.898269900916371,0.07381639902295725,-0.005483905905595221,0.10745240271923176
193,-0.7626389470250852,-1.0159494853606101,0.07370672090484534,0.19223709247080295,0.2296121285071278
