,X,v,theta,theta_dot,energy
0,0.0,-2.0,0.5235987755982988,0.0,1.1800638586276913
1,-0.04,-1.440798410550804,0.5235987755982988,-0.5794241734494596,0.7834788168293382
2,-0.06881596821101608,-0.9338939263044177,0.5120102921293096,-1.0909124144238886,0.5063845402251924
3,-0.08749384673710445,-0.4426133075453223,0.4901920438408318,-1.589291974498593,0.2965208239148588
4,-0.0963461128880109,0.11428590012860823,0.45840620435085994,-2.18785834033962,0.010181536198083754
5,-0.09406039488543873,0.5158677140145371,0.41464903754406757,-2.5979407427144685,0.05849475413859201
6,-0.08374304060514798,0.6519704804220332,0.3626902226897782,-2.666351006328084,0.016520358770819917
7,-0.07070363099670732,0.6199863975238187,0.3093632025632165,-2.5171874596040174,0.07523014472739636
8,-0.05830390304623094,0.47482953338542183,0.25901945337113613,-2.220279645811562,0.0614256765494468
9,-0.048807312378522504,0.6308334390873659,0.21461386045490488,-2.3711763873126666,0.17754354581918366
10,-0.036190643596775186,0.30019774045276343,0.16719033270865155,-1.8239874289032048,0.05315582530786554
11,-0.030186688787719917,0.5355636484308104,0.13071058413058745,-2.1231881752043384,0.19159218082341167
12,-0.01947541581910371,0.10964883655170249,0.08824682062650069,-1.4514462621140227,0.010180191179395141
13,-0.017282439088069663,0.3349111714174471,0.05921789538422023,-1.762114040471377,0.10263961192297172
14,-0.01058421565972072,-0.05851879477651967,0.023975614574792692,-1.1556036493819075,0.017599619568579708
15,-0.011754591555251114,0.09579304234201008,0.0008635415871545427,-1.3799567255394978,0.011511244685231101
16,-0.009838730708410912,-0.243763922870386,-0.026735592923635414,-0.8703675864325806,0.014727994243497607
17,-0.014714009165818633,-0.19268395086462425,-0.044142944652287026,-0.9548194903526271,0.06392322437870031
18,-0.01856768818311112,-0.456283913282696,-0.06323933445933957,-0.5727785335611448,0.09235303043237503
19,-0.02769336644876504,-0.6421761054355288,-0.07469490513056247,-0.3130776007867728,0.10973114333722422
20,-0.040536888557475614,-0.8041527856597286,-0.08095645714629793,-0.09272994342804863,0.11086004026598216
21,-0.056619944270670186,-0.9367320966752024,-0.0828110560148589,0.08171248223354408,0.03469378564349187
22,-0.07535458620417423,-0.8992921139354413,-0.08117680637018802,0.0014263280670263057,0.151620004883044
23,-0.09334042848288306,-1.0625534085748698,-0.08114827980884749,0.22167205579744034,0.08564717808376536
24,-0.11459149665438045,-1.1407505915377563,-0.07671483869289869,0.3147504242439299,0.11832905441680854
25,-0.13740650848513558,-1.0372256651613667,-0.07041983020802009,0.1373877101082926,0.23238949624282396
26,-0.1581510217883629,-1.2560464464603072,-0.06767207600585423,0.44411905382237415,0.05401148061613051
27,-0.18327195071756905,-1.2124702313347033,-0.05878969492940675,0.3590239338255351,0.07732980481628018
28,-0.2075213553442631,-1.2746914676559473,-0.05160921625289605,0.43492033097087,0.09795786747475195
29,-0.23301518469738206,-1.1978234286688876,-0.04291080963347865,0.3046054177219797,0.24318951658810772
30,-0.2569716532707598,-1.397574553095812,-0.03681870127903906,0.5913443830113916,0.4519908694007092
31,-0.28492314433267607,-1.0753842962375684,-0.024991813618811226,0.09756428295379566,0.3769325602577154
32,-0.30643083025742746,-1.4183868268697328,-0.023040527959735314,0.6045605817549271,0.4012614068138745
33,-0.3347985667948221,-1.136623755319354,-0.010949316324636771,0.17525483738160946,0.14419796256594913
34,-0.3575310419012092,-1.2611104170581922,-0.0074442195770045815,0.358754602124896,0.0564272912570021
35,-0.38275325024237306,-1.2167801110010545,-0.00026912753450666124,0.2900724051586975,0.038947278320074774
36,-0.4070888524623941,-1.2483461481120333,0.005532320568667288,0.3373423356162385,0.19236074418892005
37,-0.4320557754246348,-1.096221619761761,0.012279167280992058,0.11078552903980071,0.3622924898328349
38,-0.45398020781987003,-1.4203130678127647,0.014494877861788073,0.6004960366552405,0.5731042194105291
39,-0.4823864691761253,-1.0191461438005733,0.026504798594892885,0.0030702087233557274,0.34965563372011593
40,-0.5027693920521368,-1.3542735622827071,0.02656620276936,0.5133762738834243,0.4755050664083871
41,-0.529854863297791,-1.006111985208821,0.036833728247028484,-0.000872267938975102,0.25952822766633576
42,-0.5499771030019673,-1.2582649594765347,0.03681628288824898,0.38792731364824673,0.35281012023568525
43,-0.575142402191498,-0.981374519841324,0.044574829161213914,-0.016305354460766586,0.3834155828448037
44,-0.5947698925883245,-1.362833491678319,0.044248722071998585,0.5684154128320136,0.5888253018252279
45,-0.6220265624218908,-0.9338577811578438,0.05561703032863886,-0.061413441667226176,0.350340358843515
46,-0.6407037180450477,-1.2994855080670096,0.054388761495294334,0.502523111113324,0.6568199554309416
47,-0.6666934282063879,-0.7984336665640483,0.06443922371756082,-0.2319608765461797,0.4597686078389964
48,-0.6826621015376688,-1.3536686792090822,0.05980000618663722,0.6180950898064163,0.6973344616742557
49,-0.7097354751218504,-0.8414278951418063,0.07216190798276555,-0.13132192504531504,0.36438894763977886
50,-0.7265640330246865,-1.261827161536276,0.06953546948185925,0.5188330080932506,0.70624042938165
51,-0.7518005762554121,-0.7065833134684634,0.07991212964372427,-0.2915930892032157,0.39179020256464575
52,-0.7659322425247813,-1.2384996877291947,0.07408026785965996,0.527204403393318,0.7287668219439155
53,-0.7907022362793652,-0.6544064166531525,0.08462435592752632,-0.32477284090366076,0.4014719640925549
54,-0.8037903646124283,-1.2406649590683514,0.0781288991094531,0.5763179558327668,0.5366285829358927
55,-0.8286036637937952,-0.8108942081115674,0.08965525822610844,-0.04342510553754775,0.09648644354463515
56,-0.8448215479560266,-0.9279091109218938,0.08878675611535748,0.15771563902245064,0.17530199198722832
57,-0.8633797301744645,-0.7435368352316194,0.0919410688958065,-0.09168439921591581,0.23545868269587927
58,-0.8782504668790968,-1.0518922512454694,0.09010738091148818,0.3958877761561884,0.6203861724117427
59,-0.8992883119040062,-0.46814379275963924,0.09802513643461194,-0.4497268413739617,0.29309790605190755
60,-0.908651187759199,-1.0544762434239952,0.08903059960713271,0.4543229560237375,0.6189535454176955
61,-0.9297407126276789,-0.47201662043484016,0.09811705872760745,-0.3897657073970209,0.26897512801500445
62,-0.9391810450363757,-1.0089412877587292,0.09032174457966703,0.4405478432427473,0.5791204616421628
63,-0.9593598707915503,-0.4392755986356476,0.09913270144452198,-0.3839490501934777,0.2717464227627719
64,-0.9681453827642632,-1.0208313032443712,0.09145372044065242,0.5131989788980938,0.5985677410779311
65,-0.9885620088291507,-0.43710250050204746,0.1017177000186143,-0.3318852114021351,0.2712691145586497
66,-0.9973040588391916,-1.0234637996017186,0.0950799957905716,0.5729640346435139,0.5835014044949441
67,-1.017773334831226,-0.45449756128209196,0.10653927648344187,-0.24871912911115313,0.27536574037203343
68,-1.0268632860568678,-1.0323501003319313,0.10156489390121881,0.6444084192715978,0.5881440903018332
69,-1.0475102880635065,-0.462232578755011,0.11445306228665077,-0.1765521301164642,0.2653973149691865
70,-1.0567549396386067,-1.0139899981915252,0.11092201968432149,0.6792448865568044,0.5485908862987636
71,-1.0770347396024371,-0.47171981043859457,0.12450691741545758,-0.09661733639517534,0.17304239494155396
72,-1.086469135811209,-0.827693827458291,0.12257457068755408,0.4697208403030303,0.48390938832564506
73,-1.1030230123603748,-0.2446797349453964,0.1319689874936147,-0.3622921353578411,0.14221710438442156
74,-1.1079166070592827,-0.7774370874863336,0.12472314478645787,0.468581546274935,0.409993515066872
75,-1.1234653488090094,-0.2509058609997252,0.13409477571195658,-0.27850665710349654,0.15097560227451928
76,-1.128483466029004,-0.8111437379912275,0.12852464256988663,0.5936118940471237,0.3431132111744577
77,-1.1447063407888285,-0.38668323247561714,0.1403968804508291,-0.0001451825808007623,0.011799702931435506
78,-1.1524400054383408,-0.41839532552641834,0.1403939767992131,0.08809612571083222,0.03969851154586085
79,-1.1608079119488692,-0.3270581489658957,0.14215589931342973,-0.006421263123263729,0.07051536736998126
80,-1.1673490749281872,-0.5389190092747256,0.14202747405096444,0.34981763313741554,0.2832302974031495
81,-1.1781274551136818,-0.013529325813417259,0.14902382671371275,-0.38871586507006595,0.016463595484448888
82,-1.1783980416299502,-0.5326987710495533,0.14124950941231143,0.42505798650985016,0.28163828675137426
83,-1.1890520170509413,-0.00043963310201333705,0.14975066914250842,-0.32399005261770564,0.008536817781809754
84,-1.1890608097129816,-0.5565544248418007,0.14327086809015432,0.5447086651687655,0.3192410160073877
85,-1.2001918982098176,0.025957119395429107,0.15416504139352963,-0.2781285886407572,0.008075706902871757
86,-1.1996727558219091,-0.5605613093389838,0.1486024696207145,0.6363601669364677,0.3191895963662396
87,-1.2108839820086887,0.02182897378103954,0.16132967295944384,-0.18406892696542532,0.00762211828485097
88,-1.210447402533068,-0.5274564111805217,0.15764829442013534,0.6763855316897401,0.29827586826618846
89,-1.2209965307566786,0.05470595577083193,0.17117600505393013,-0.13987226637436256,0.021829513194347505
90,-1.219902411641262,-0.3864247243530695,0.1683785597264429,0.5622334875741611,0.20520244375487595
91,-1.2276309061283235,0.16429858227797023,0.1796232294779261,-0.2028990918235576,0.07723545217602533
92,-1.2243449344827642,-0.3225259495266493,0.17556524764145495,0.5681146915216152,0.1646149856402058
93,-1.2307954534732972,0.21437605150156852,0.18692754147188725,-0.17350696852687852,0.06855268615757798
94,-1.226507932443266,-0.1110973913646961,0.18345740210134967,0.3608357137535454,0.05698916580505765
95,-1.22872988027056,0.470303414362799,0.19067411637642057,-0.4429961901904069,0.2639492921268564
96,-1.219323811983304,-0.10241684206441293,0.18181419257261242,0.4562339482865927,0.04424315712745253
97,-1.2213721488245923,0.419965988356671,0.19093887153834427,-0.26126549932056387,0.18790849596752063
98,-1.2129728290574588,-0.03050290693241786,0.185713561551933,0.45795349236962046,0.00590506957534433
99,-1.2135828871961072,0.53803062745865,0.1948726313993254,-0.3258962146411941,0.1816519981890473
100,-1.2028222746469341,0.19772038512446372,0.1883547071065015,0.23183785885869312,0.12484048651890908
101,-1.1988678669444448,0.7789671060007264,0.19299146428367536,-0.5695625802102241,0.410943813311337
102,-1.1832885248244303,0.24570730587891632,0.18160021267947088,0.27186499842446277,0.1497294381166835
103,-1.178374378706852,0.8083391883796386,0.18703751264796015,-0.5051074147215671,0.34965806988945586
104,-1.1622075949392592,0.3727267942791125,0.1769353643535288,0.19158415061874023,0.18915141544011133
105,-1.154753059053677,0.8531344668049037,0.1807670473659036,-0.46602897552711664,0.29066840464901983
106,-1.1376903697175789,0.5107202483816582,0.17144646785536127,0.0920799944466375,0.26009899052505003
107,-1.1274759647499457,1.0001463788820049,0.17328806774429403,-0.5811373108348562,0.5227795014861016
108,-1.1074730371723056,0.47531978416148535,0.1616653215275969,0.24500430993404165,0.2917840162795524
109,-1.0979666414890759,1.0573134109948934,0.16656540772627773,-0.5692800189594013,0.46585949641706753
110,-1.076820373269178,0.6154080438384961,0.1551798073470897,0.13314819805832245,0.3227813871605233
111,-1.064512212392408,1.1191244073202693,0.15784277130825614,-0.5679072010976358,0.4145834898589851
112,-1.0421297242460026,0.7477685233093352,0.14648462728630343,0.028415274406260127,0.4051956925963858
113,-1.027174353779816,1.2726345241104675,0.14705293277442863,-0.7075393618344183,0.47095982976277684
114,-1.0017216632976065,0.9009040662269121,0.13290214553774027,-0.11288378781118968,0.502187407027676
115,-0.9837035819730683,1.4452409670460882,0.13064446978151648,-0.8832304803708384,0.760104054195091
116,-0.9547987626321465,0.9164873650886161,0.11297986017409971,-0.05855871638031829,0.44330124908087987
117,-0.9364690153303742,1.3877073015085457,0.11180868584649334,-0.7277368106082299,0.7451217974594582
118,-0.9087148693002033,0.8500959044735171,0.09725394963432873,0.10644825746724784,0.5129466561381476
119,-0.8917129512107329,1.433674238682157,0.0993829147836737,-0.7362351387234211,0.619853682728867
120,-0.8630394664370897,1.0007770459990653,0.08465821200920527,-0.0609229913148821,0.4830196579517334
121,-0.8430239255171085,1.471497507486212,0.08343975218290763,-0.7396151552704224,0.8511859433917768
122,-0.8135939753673842,0.8931489170001502,0.06864744907749917,0.1493923834030999,0.5257381095381239
123,-0.7957309970273811,1.461927889357665,0.07163529674556117,-0.6816000958012763,0.5954588939043046
124,-0.7664924392402278,1.055127470272957,0.058003294829535645,-0.05192168610613712,0.5457635208713463
125,-0.7453898898347686,1.5599359643114425,0.056964861107412904,-0.7908175995375291,0.7793854050762987
126,-0.7141911705485398,1.0603505368720434,0.04114850911666232,-0.02591638098514515,0.630558042159341
127,-0.6929841598110988,1.6404992878010063,0.04063018149695941,-0.8833086325029629,0.7763705335200897
128,-0.6601741740550787,1.1667180457567283,0.022964008846900155,-0.16128129437440963,0.17146772672022922
129,-0.6368398131399442,1.3106715992191174,0.019738382959411962,-0.37040386687613214,0.18438682638822948
130,-0.6106263811555619,1.1713594977685842,0.01233030562188932,-0.15567371298765803,0.29837017162358087
131,-0.5871991912001902,1.4211989877196765,0.00921683136213616,-0.5267794417504782,0.4429901686835725
132,-0.5587752114457967,1.111760771436767,-0.0013187574728734039,-0.05993212220922606,0.43725538333081565
133,-0.5365399960170614,1.4964293378053743,-0.0025173999170579253,-0.6373221846078894,0.5287467762846877
134,-0.5066114092609539,1.1449388459848262,-0.015263843609215712,-0.11082823229621541,0.28776566652644736
135,-0.4837126323412574,1.3914438305880807,-0.01748040825514002,-0.4850300318460963,0.39062790404960407
136,-0.4558837557294958,1.1133998471300437,-0.027181008892061945,-0.0731667536532597,0.3691966299352866
137,-0.4336157587868949,1.4382468743659385,-0.028644343965127137,-0.5682475387419537,0.36708685278253045
138,-0.4048508212995761,1.1851057078309053,-0.040009294739966214,-0.19711184028156137,0.16496535715589253
139,-0.381148707142958,1.3224986506934584,-0.043951531545597444,-0.41479592313337077,0.352403169663437
140,-0.35469873412908887,1.0594340209400182,-0.05224745000826486,-0.033497636376249695,0.5384125929226222
141,-0.3335100537102885,1.5566077450642768,-0.052917402735789855,-0.7935943295859981,0.5980988693278815
142,-0.302377898809003,1.1736743351498151,-0.06878928932750981,-0.23554871595696802,0.17274571587637008
143,-0.2789044121060067,1.3195160797415155,-0.07350026364664917,-0.4740020531592235,0.31850984499411583
144,-0.2525140905111764,1.0812509500368332,-0.08298030470983364,-0.13915893320161637,0.37875190696347755
145,-0.23088907151043975,1.426011300414184,-0.08576348337386597,-0.6788882565054768,0.539419853595059
146,-0.20236884550215606,1.050225889350104,-0.09934124850397551,-0.14246546671723737,0.38660253006202033
147,-0.18136432771515398,1.4127304834594803,-0.10219055783832025,-0.7126997940824048,0.40969499474835064
148,-0.15310971804596438,1.1248260116790179,-0.11644455371996834,-0.3130878052842739,0.034288282967399226
149,-0.130613197812384,1.0963799008543795,-0.12270630982565382,-0.30486497967076404,0.05849952129331913
150,-0.10868559979529642,1.0454501793053101,-0.1288036094190691,-0.26502999884964595,0.16382449465502713
151,-0.08777659620919022,1.2017265625949751,-0.13410420939606202,-0.5352663883198424,0.28466680501479036
152,-0.06374206495729072,0.9680628833438039,-0.14480953716245887,-0.2272263634410122,0.17371527849061622
153,-0.044380807290414645,1.1467681225991724,-0.1493540644312791,-0.5349039352985128,0.13420284302798802
154,-0.021445444838431197,1.0324064628021272,-0.16005214313724936,-0.4090181888515376,0.09805286291299756
155,-0.000797315582388651,0.9404731390070472,-0.1682325069142801,-0.3197353933238066,0.11716527925644347
156,0.018012147197752293,1.0659883446976148,-0.17462721478075624,-0.5545775955309977,0.270418038577026
157,0.03933191409170459,0.8155572479574758,-0.18571876669137619,-0.23572388321845172,0.012941516695771205
158,0.05564305905085411,0.8024987752015098,-0.1904332443557452,-0.2707609870087452,0.05066984089241226
159,0.07169303455488431,0.7427659737853736,-0.1958484640959201,-0.23843112206651584,0.019021226384610315
160,0.08654835403059177,0.7707617185387713,-0.2006170865372504,-0.336834005102685,0.0883293726774172
161,0.1019635884013672,0.6598395231809858,-0.2073537666393041,-0.23237430866035938,0.03873799827544274
162,0.11516037886498691,0.6047015731971124,-0.21200125281251128,-0.2119651345667549,0.05746604657033565
163,0.12725441032892915,0.5137565633642969,-0.21624055550384638,-0.14046429561506635,0.0648385682696247
164,0.13752954159621508,0.6409684511974167,-0.21904984141614772,-0.38991858739833796,0.19549103668331508
165,0.15034891062016342,0.3392199447408902,-0.2268482131641145,-0.01199840415068898,0.0926781182790609
166,0.15713330951498122,0.6083308149593893,-0.22708818124712826,-0.4714456533608029,0.2552867665621613
167,0.169299925814169,0.1890324995490162,-0.2365170943143443,0.07516270467829178,0.061503286472180646
168,0.17308057580514932,0.5029776486306368,-0.23501384022077848,-0.45153418415601165,0.22481315560648996
169,0.18314012877776206,0.05389860662261442,-0.24404452390389872,0.13510756317710793,0.01858725568608608
170,0.18421810091021434,0.35889322655268363,-0.24134237264035657,-0.37986726385888736,0.1408383754847965
171,0.19139596544126802,-0.03775051653423117,-0.24893971791753433,0.12758721086770342,0.008901840375923684
172,0.1906409551105834,0.2347754766786988,-0.24638797370018026,-0.34103522024530936,0.13185302337607263
173,0.19533646464415738,-0.3447034049271537,-0.25320867810508646,0.43022510405573905,0.195450261744032
174,0.18844239654561432,0.24140400536441464,-0.24460417602397166,-0.49455313742440316,0.13177244582197814
175,0.19327047665290262,-0.33816283199003294,-0.2544952387724597,0.2777207374905876,0.031028432991540487
176,0.18650722001310197,-0.24225654166994606,-0.24894082402264797,0.06447840339998648,0.08604233891787767
177,0.18166208917970306,-0.5879171345006629,-0.24765125595464824,0.4945512461712487,0.1307141285054062
178,0.1699037464896898,-0.36029564804824343,-0.23776023103122326,0.09146832778622921,0.14210847874579113
179,0.16269783352872494,-0.7446220900522541,-0.23593086447549869,0.5824953682108456,0.24379550899222202
180,0.14780539172767987,-0.4118923724780131,-0.22428095711128176,0.0285051615946893,0.24637743162640588
181,0.1395675442781196,-0.9920488930375566,-0.22371085387938797,0.8115571007186219,0.4352873537789252
182,0.11972656641736847,-0.5464842395590312,-0.20747971186501551,0.09464095622399238,0.22061265352482126
183,0.10879688162618784,-0.9392817659601758,-0.20558689274053565,0.6106385329151031,0.2539335953122945
184,0.09001124630698432,-0.6657020332269225,-0.1933741220822336,0.14889309790065475,0.23753468625219806
185,0.07669720564244586,-1.0136858668853719,-0.1903962601242205,0.6046416207375476,0.27365088981504315
186,0.05642348830473842,-0.7412184488221659,-0.17830342770946955,0.14768708588849805,0.2709218051506816
187,0.0415991193282951,-1.0977001175346306,-0.1753496859916996,0.6217882200616389,0.04717603301514021
188,0.019645116977602493,-1.0523824913729427,-0.1629139215904668,0.5035651322600918,0.08544571348461875
189,-0.0014025328498563604,-0.9693360529685374,-0.15284261894526496,0.3329598165790879,0.10164136537003947
190,-0.02078925390922711,-1.0709255874324428,-0.1461834226136832,0.438806688017525,0.1325874742557015
191,-0.04220776565787597,-1.1917542587769843,-0.1374072888533327,0.5752915769398451,0.12942509693601661
192,-0.06604285083341566,-1.0816960514879934,-0.1259014573145358,0.37148956311890174,0.22621843934166994
193,-0.08767677186317552,-1.2869329234788984,-0.11847166605215777,0.6399908406105395,0.03939562338447751
