,X,v,theta,theta_dot,energy
0,0.0,-2.0,0.6981317007977318,0.0,1.2
1,-0.04,-1.438666391579706,0.6981317007977318,-0.4560301799515931,0.8315004701911081
2,-0.06877332783159412,-0.9040693936219317,0.6890110971986999,-0.8813382120942115,0.52075808632845
3,-0.08685471570403276,-0.3827912896898428,0.6713843329568157,-1.2979629937160857,0.2559706955529845
4,-0.09451054149782961,0.1768960398306043,0.645425073082494,-1.7723945261671683,0.06521700137174197
5,-0.09097262070121753,0.7269381372603215,0.6099771825591506,-2.2546391971816306,0.34119648641901584
6,-0.0764338579560111,1.2297579264996714,0.564884398615518,-2.704434386452502,0.6704508347719693
7,-0.05183869942601767,1.7970342455159134,0.5107957108864679,-3.2657761733510666,0.9981784066656109
8,-0.015898014515699402,2.3707645534727737,0.44548018741944656,-3.8727933676736734,0.2498595690927851
9,0.03151727655375607,2.4803488642266975,0.3680243200659731,-3.894445296983324,0.9071520735482076
10,0.08112425383829003,2.101790555474403,0.2901354141263066,-3.2588570643994417,0.36349874865901527
11,0.12316006494777809,2.2808183319817856,0.22495827283831776,-3.4320669663764356,1.1370418846467785
12,0.1687764315874138,1.7607842637603697,0.15631693351078907,-2.606089175467808,0.3629809526663161
13,0.2039921168626212,1.9747233109253897,0.1041951500014329,-2.8773147788852746,0.9257370156646708
14,0.243486583081129,1.4847722160224286,0.046648854423727404,-2.115795966608311,0.0704556773716672
15,0.2731820274015776,1.5337997905010032,0.004332935091561185,-2.1755475359927177,0.48325159897141956
16,0.30385802321159766,1.2051960011366438,-0.03917801562829317,-1.6813725999941904,0.11619227269387736
17,0.32796194323433053,1.3060533804030705,-0.07280546762817698,-1.844057968177455,0.6252879228434446
18,0.35408301084239197,0.8080726461114995,-0.10968662699172607,-1.120451606060938,0.1487216336258237
19,0.37024446376462194,1.000869614197704,-0.13209565911294482,-1.4400923678988522,0.5616685598155265
20,0.39026185604857605,0.41784981987483605,-0.16089750647092188,-0.6119048161320831,0.13928492872858028
21,0.39861885244607276,0.767455085647768,-0.17313560279356355,-1.1766394386293406,0.3835995861802332
22,0.4139679541590281,0.24728349564287622,-0.19666839156615035,-0.4586952860614768,0.006216772631463886
23,0.4189136240718856,0.2766455183437617,-0.20584229728737988,-0.5593377963222598,0.0773117344001825
24,0.42444653443876085,-0.01920572604853804,-0.21702905321382507,-0.1850206002301551,0.0014983226086275657
25,0.4240624199177901,0.03693250444514584,-0.22072946521842818,-0.33055938862210343,0.00683363112136285
26,0.424801070006693,-0.25819199522487996,-0.22734065299087025,0.03701810865420824,0.04326526227164566
27,0.4196372301021954,-0.4189732187891727,-0.2266002908177861,0.2057205085454298,0.008631324749913325
28,0.41125776572641193,-0.4363244534664956,-0.2224858806468775,0.16503019276057096,0.018851197007318892
29,0.402531276657082,-0.39053702326302997,-0.21918527679166608,0.033169360526042385,0.11103238008679615
30,0.3947205361918214,-0.6649660331562832,-0.21852188958114524,0.3710385396864059,0.04476240449193552
31,0.38142121552869573,-0.5948589144859171,-0.2111011187874171,0.20464334405672596,0.08367961649734776
32,0.36952403723897737,-0.7308644983170952,-0.20700825190628258,0.34251910331682867,0.09800665291127335
33,0.35490674727263544,-0.8612141140074111,-0.20015786983994602,0.4734424317437125,0.057645857787460536
34,0.3376824649924872,-0.7917201546909527,-0.19068902120507178,0.31282837101271765,0.08623824027433849
35,0.32184806189866816,-0.8969699073637558,-0.18443245378481743,0.41211791592311087,0.03629697192558299
36,0.303908663751393,-0.8542126825604937,-0.17619009546635522,0.2951535302580017,0.06302823983613697
37,0.28682441010018317,-0.9247109515884481,-0.17028702486119518,0.34773151959831294,0.05512661934925522
38,0.2683301910684142,-0.8633066527653317,-0.16333239446922893,0.20713450621912802,0.19984495942832994
39,0.2510640580131076,-1.088875347450906,-0.15918970434484636,0.4931778698642172,0.10019559994310946
40,0.2292865510640895,-1.1781415486028421,-0.14932614694756202,0.5787798027913841,0.017325483711203404
41,0.20572372009203266,-1.1614360223785012,-0.13775055089173435,0.5102614605222684,0.15753987091481453
42,0.18249499964446264,-1.024702575592122,-0.127545321681289,0.26673342016331214,0.03733778478625509
43,0.1620009481326202,-1.0588328364455781,-0.12221065327802275,0.2801162192548903,0.02332518272073634
44,0.14082429140370864,-1.0788366865616978,-0.11660832889292494,0.2740576378109831,0.1576508639081105
45,0.11924755767247469,-1.2212677009279698,-0.11112717613670528,0.4520480669912026,0.03697665630929526
46,0.09482220365391529,-1.2497249372004795,-0.10208621479688122,0.46186643662990134,0.11007754463685888
47,0.0698277049099057,-1.3356211953571535,-0.0928488860642832,0.5600787815592666,0.07372541551024302
48,0.04311528100276263,-1.2794655525541792,-0.08164731043309786,0.44894977365329736,0.003429376930325115
49,0.017525969951679043,-1.2756604958175788,-0.07266831496003191,0.4192835539376161,0.13983869282805847
50,-0.007987239964672533,-1.1661115968209117,-0.06428264388127959,0.23404819800698723,0.10635420003245956
51,-0.03130947190109076,-1.2549661360950282,-0.05960167992113985,0.34816864030366806,0.007781489382329031
52,-0.05640879462299132,-1.2602455179503833,-0.052638307115066486,0.33856113041630687,0.10107571459907395
53,-0.08161370498199899,-1.3386951284211008,-0.04586708450674035,0.4406040414900495,0.33011851184294116
54,-0.10838760755042101,-1.0938512449811841,-0.037055003676939355,0.06024427848598696,0.32240161153424324
55,-0.1302646324500447,-1.3815638576403377,-0.035850118107219615,0.4806252653262947,0.20712953835176035
56,-0.15789590960285144,-1.2324560454199869,-0.02623761280069372,0.24656958292596384,0.1410040243133884
57,-0.18254503051125118,-1.3447183992810894,-0.021306221142174443,0.4071921818102675,0.21756975884537952
58,-0.20943939849687296,-1.184369535245627,-0.013162377505969092,0.16045992198014924,0.2237473590373496
59,-0.2331267892017855,-1.3696298604421973,-0.009953179066366107,0.43445671086150783,0.2356183679481217
60,-0.26051938641062944,-1.1992000853209177,-0.0012640448491359497,0.1758985245623782,0.15131588753194844
61,-0.2845033881170478,-1.323111359219459,0.0022539256421116143,0.36139365783358246,0.18556674320238303
62,-0.31096561530143696,-1.1845937799642234,0.009481798798783265,0.15428047029897946,0.27900058641859443
63,-0.33465749090072144,-1.4158760932133543,0.012567408204762855,0.5039759523741608,0.5727962249141081
64,-0.36297501276498856,-1.0148827138756111,0.022646927252246072,-0.09377189690916887,0.37481697674103437
65,-0.3832726670425008,-1.3739998107381135,0.020771489314062693,0.45142324289395275,0.5200095264257236
66,-0.41075266325726306,-0.9994762399097752,0.02979995417194175,-0.10413454648869203,0.3872167421931073
67,-0.43074218805545855,-1.3760681411129454,0.02771726324216791,0.4692623930186224,0.5154629319201184
68,-0.4582635508777175,-1.0052746374723764,0.037102511102540356,-0.07856639841834134,0.29510704617179695
69,-0.478369043627165,-1.2911627508854968,0.03553118313417353,0.3608762769167099,0.280379150643931
70,-0.5041922986448749,-1.0771070723017462,0.042748708672507726,0.05043938606014153,0.21988064577752717
71,-0.5257344400909099,-1.277277963390359,0.04375749639371056,0.3629857051953468,0.4362606314541599
72,-0.5512799993587171,-0.9403661003684636,0.051017210497617496,-0.12903774904852877,0.3835622669340333
73,-0.5700873213660863,-1.3364943275796164,0.04843645551664692,0.47937404495330777,0.6091546650947868
74,-0.5968172079176787,-0.8852264938248406,0.05802393641571308,-0.18249907422064188,0.5334742974748933
75,-0.6145217377941755,-1.4684044941370318,0.05437395493130024,0.7078452331461655,0.831275925141813
76,-0.6438898276769162,-0.9046285007382743,0.06853085959422356,-0.12059088395310336,0.4795143780241008
77,-0.6619823976916817,-1.4194622989835395,0.06611904191516149,0.6699793991405659,0.8334537737268162
78,-0.6903716436713524,-0.8351996170996466,0.07951862989797281,-0.18507480572015733,0.4107754485825912
79,-0.7070756360133453,-1.311175454705112,0.07581713378356966,0.5499867147286976,0.6693504797094078
80,-0.7332991451074475,-0.804755664616399,0.08681686807814362,-0.18519186146760258,0.31629809576584555
81,-0.7493942583997755,-1.1852769686222677,0.08311303084879157,0.4089325133320676,0.6797346953935338
82,-0.7730997977722208,-0.6183619023207155,0.09129168111543293,-0.41409757618787757,0.32552773939276775
83,-0.7854670358186351,-1.1178248103042618,0.08300972959167538,0.35877948504749413,0.5066176383942693
84,-0.8078235320247203,-0.6705397131753053,0.09018531929262526,-0.2854610928191932,0.37401802331054396
85,-0.8212343262882265,-1.2053916527858282,0.08447609743624139,0.5400349634247311,0.6553369729965688
86,-0.845342159343943,-0.6654629746072722,0.09527679670473602,-0.24216354413787322,0.31721306533566823
87,-0.8586514188360884,-1.1240307226410324,0.09043352582197856,0.4705374124098183,0.535225338236205
88,-0.8811320332889091,-0.6520610674597387,0.09984427407017492,-0.2079729063649386,0.1855530819425539
89,-0.8941732546381038,-0.9269541359910443,0.09568481594287614,0.23161859089400927,0.4859939463766519
90,-0.9127123373579247,-0.4113060077556784,0.10031718776075634,-0.5102270782576189,0.260635798992589
91,-0.9209384575130383,-0.9976451795516793,0.09011264619560395,0.39430371489560434,0.5878809290560355
92,-0.9408913611040719,-0.4138969446275693,0.09799872049351604,-0.4513086120580978,0.24902343895995166
93,-0.9491692999966233,-0.974259237741482,0.0889725482523541,0.4139674019494255,0.4569669015916132
94,-0.9686544847514529,-0.5092097278668573,0.09725189629134261,-0.2547242136351514,0.27503947116251165
95,-0.97883867930879,-1.025525320298982,0.09215741201863958,0.5446366111776462,0.5658785303831163
96,-0.9993491857147696,-0.4755663630571858,0.10305014424219251,-0.24974526341906422,0.23767123825047032
97,-1.0088605129759134,-0.9529219003404408,0.09805523897381123,0.4927326570112306,0.40634710365788
98,-1.0279189509827222,-0.5286128892292992,0.10790989211403584,-0.11189150020047045,0.19447643213018925
99,-1.0384912087673082,-0.8853696067203563,0.10567206211002643,0.45179486868806074,0.5089134636661828
100,-1.0561986009017152,-0.313301191669331,0.11470795948378765,-0.37051137398215583,0.19802335741956606
101,-1.062464624735102,-0.8997202861698681,0.10729773200414452,0.536986802720702,0.5252800010609853
102,-1.0804590304584993,-0.3163408841149946,0.11803746805855857,-0.30156484356328694,0.1943261345511407
103,-1.0867858481407993,-0.8920014166348872,0.11200617118729284,0.5905399815311839,0.5192071368695609
104,-1.104625876473497,-0.3087236532730614,0.12381697081791651,-0.24603331203354073,0.19189483473912575
105,-1.1108003495389582,-0.8951853260660131,0.11889630457724569,0.6632339310790706,0.48059568401397357
106,-1.1287040560602786,-0.355501228676139,0.1321609831988271,-0.10570387285220162,0.14757593565052318
107,-1.1358140806338013,-0.7565045688717871,0.13004690574178307,0.5292979943521576,0.41893089838025005
108,-1.150944172011237,-0.2011527055313599,0.1406328656288262,-0.25856944556773176,0.11614187644506617
109,-1.1549672261218642,-0.7348494049491038,0.13546147671747158,0.5752821207916747,0.40413971456548947
110,-1.1696642142208462,-0.18132171294027577,0.14696711913330507,-0.20769922533895646,0.10396857159532279
111,-1.1732906484796517,-0.7145547169714268,0.14281313462652595,0.6265806649944843,0.41183391839294203
112,-1.1875817428190802,-0.13201822168606558,0.15534474792641564,-0.1964838487083992,0.07007975981407262
113,-1.1902221072528016,-0.6187846368383554,0.15141507095224765,0.5703613819667541,0.3559071617099327
114,-1.2025977999895687,-0.03647879123071762,0.16282229859158273,-0.2487576888199423,0.026470757210159214
115,-1.2033273758141831,-0.5797971103954466,0.1578471448151839,0.6030991829774678,0.3302447231459775
116,-1.214923318022092,-0.00013120600133886828,0.16990912847473325,-0.20937546060364265,0.0044054669018482795
117,-1.2149259421421188,-0.4532959984692897,0.16572161926266038,0.5102967408138928,0.25826304039906733
118,-1.2239918621115047,0.12861963646836239,0.17592755407893823,-0.30211852337207934,0.0690550595888005
119,-1.2214194693821374,-0.45788735303869277,0.16988518361149665,0.6155188302456939,0.25820508238455014
120,-1.2305772164429112,0.12393429475639983,0.18219556021641053,-0.1949436056381938,0.056763301580669466
121,-1.2280985305477832,-0.3581055531381094,0.17829668810364666,0.5694178958852191,0.19959595332343286
122,-1.2352606416105454,0.22347468958778388,0.18968504602135103,-0.2369810274090921,0.07873341754156031
123,-1.2307911478187896,-0.13903660604401635,0.1849454254731692,0.3524663140030464,0.07397948730478618
124,-1.23357187993967,0.44232071652811633,0.19199475175323014,-0.4506337096470393,0.22935300236027661
125,-1.2247254656091076,-0.08890049373857156,0.18298207756028934,0.387657070966845,0.042951895181630916
126,-1.226503475483879,0.4925173845058104,0.19073521897962623,-0.4164129466616602,0.2843508302220487
127,-1.216653127793763,-0.09394367010595428,0.182406960046393,0.5030622960224893,0.03525923609930667
128,-1.218532001195882,0.383650751490251,0.1924682059668428,-0.14811359160461923,0.003003831690754939
129,-1.210858986166077,0.3887212083146174,0.18950593413475042,-0.09934189948469759,0.030603528109469712
130,-1.2030845619997848,0.4635705550515755,0.18751909614505646,-0.15422405844245113,0.03542173611394638
131,-1.1938131508987533,0.5364344770475917,0.18443461497620744,-0.20679587254315152,0.04832183544917092
132,-1.1830844613578015,0.4446589345001814,0.18029869752534441,-0.01755043014894475,0.17047584256506979
133,-1.1741912826677978,0.8159513890217664,0.1799476889223655,-0.5127401418557034,0.3572689043160347
134,-1.1578722548873626,0.37496600566574984,0.16969288608525143,0.19067664772156245,0.23010349544701078
135,-1.1503729347740477,0.9567365856898014,0.17350641903968267,-0.6197943672903259,0.47328478004165364
136,-1.1312382030602517,0.45839629282439676,0.16111053169387615,0.16724789483170355,0.27953877969997876
137,-1.1220702772037638,1.0403998917865134,0.16445548959051023,-0.6472900127273669,0.5596271515415011
138,-1.1012622793680336,0.49935814839955506,0.1515096893359629,0.20145497876234741,0.3050444905207248
139,-1.0912751164000425,1.0816196737004977,0.15553878891120984,-0.6175584039679259,0.4731059437694163
140,-1.0696427229260326,0.6422772583356452,0.14318762083185133,0.0790439919277256,0.38516180890471036
141,-1.0567971777593197,1.2212239725652783,0.14476850067040584,-0.738535346550822,0.6650198830386128
142,-1.0323726983080141,0.6739455788053605,0.1299977937393894,0.11620832209775589,0.38051819501646106
143,-1.018893786731907,1.2180292122067402,0.13232196018134454,-0.6549190133668893,0.5324919600893289
144,-0.9945332024877722,0.7796562688167736,0.11922357991400676,0.03568138967237644,0.4305185997918685
145,-0.9789400771114367,1.315020372692917,0.11993720770745428,-0.7266954167869435,0.6178118338826187
146,-0.9526396696575784,0.8437862677870717,0.10540329937171541,0.010254889220442709,0.4378318996007725
147,-0.935763944301837,1.3478333684511496,0.10560839715612427,-0.7106885087372438,0.7390928602909672
148,-0.9088072769328139,0.7987750481392819,0.0913946269813794,0.13930163380869298,0.46089818049583087
149,-0.8928317759700283,1.3556584520560158,0.09418065965755326,-0.6657045452730446,0.7834816759749479
150,-0.865718606928908,0.7780695595568577,0.08086656875209237,0.2244874225226423,0.47294298180797095
151,-0.8501572157377708,1.362005888388099,0.08535631720254522,-0.6248058177663621,0.4580280048352245
152,-0.8229170979700088,1.0259472374235523,0.07286020084721798,-0.09748874758693793,0.6099431385284237
153,-0.8023981532215377,1.6072075207568055,0.07091042589547922,-0.9456639820278558,0.9385827453528834
154,-0.7702540028064017,1.0211052083751797,0.051997146254922105,-0.04788970781275015,0.580365893455811
155,-0.7498318986388981,1.575941982947295,0.051039352098667105,-0.8637397643871864,0.9220301166611171
156,-0.7183130589799522,0.9899941447970633,0.03376455681092338,0.029036494360322518,0.594787932102452
157,-0.698513176084011,1.5748273939617632,0.03434528669812983,-0.8377884809486676,0.7683052959773288
158,-0.6670166282047757,1.0866431936548824,0.017589517079156475,-0.09584850489025676,0.5076720187015414
159,-0.645283764331678,1.544013344149464,0.01567254698135134,-0.7766265523086973,0.7833001133180677
160,-0.6144034974486887,1.0372858568068821,0.00014001593517739414,-0.012021129322433488,0.524863659114202
161,-0.5936577803125511,1.5311997548512961,-0.00010040665127127564,-0.7528508044420598,0.5747285719181429
162,-0.5630337852155252,1.1566399577024769,-0.015157422740112472,-0.19104063110634717,0.08316462865105426
163,-0.5399009860614756,1.2275343359267534,-0.018978235362239415,-0.301826094474888,0.14167537821149176
164,-0.5153502993429405,1.1139357861312005,-0.025014757251737175,-0.1370382215091505,0.32923787185116127
165,-0.4930715836203165,1.4042554308979265,-0.027755521681920185,-0.5797350193952016,0.5997792331146652
166,-0.46498647500235796,0.9800055811142263,-0.03935022206982422,0.048235573624689665,0.5000016923603097
167,-0.4453863633800734,1.4771615875119002,-0.038385510597330426,-0.7084871281708358,0.7701680499171661
168,-0.41584313162983544,0.9577570057906769,-0.05255525316074714,0.05876325945141081,0.49329273879892466
169,-0.3966879915140219,1.4595000409222036,-0.05137998797171892,-0.7082562837507145,0.8295154735121949
170,-0.3674979906955778,0.8933412972166977,-0.06554511364673321,0.1247620541229294,0.46071209219563863
171,-0.34963116475124384,1.3940925371249642,-0.06304987256427462,-0.6440083703446178,0.6282122570897812
172,-0.32174931400874457,0.9460592739848934,-0.07593003997116697,0.008181787856548328,0.44165843962031237
173,-0.3028281285290467,1.4022273179119344,-0.075766404214036,-0.6964007294850123,0.6134276601852735
174,-0.27478358217080806,0.9668370963401551,-0.08969441880373626,-0.0674430512748806,0.35287025749490747
175,-0.25544684024400494,1.3251058308134895,-0.09104327982923387,-0.6290206890129955,0.6523752654143583
176,-0.22894472362773516,0.8358126459261228,-0.10362369360949378,0.07514965797458584,0.5035262882492882
177,-0.2122284707092127,1.4221943572948565,-0.10212070045000206,-0.830115638358129,0.6586125930834051
178,-0.18378458356331556,0.9598943928964178,-0.11872301321716464,-0.17024974864294773,0.1837086427409416
179,-0.1645866957053872,1.1496057836417468,-0.12212800819002359,-0.48763630700176974,0.23953811808528877
180,-0.14159458003255226,0.9442875739941766,-0.13188073433005898,-0.21776936260255791,0.04222679594067582
181,-0.12270882855266874,0.9901783848040115,-0.13623612158211013,-0.32466846838899127,0.012198938541256216
182,-0.1029052608565885,1.0042746412521117,-0.14272949094988996,-0.38554656773333673,0.03553267218454549
183,-0.08281976803154627,0.9711974181724461,-0.1504404223045567,-0.3782553962417897,0.10428816284751698
184,-0.06339581966809735,1.0797504242872227,-0.1580055302293925,-0.5833086100347987,0.3086864615277582
185,-0.04180081118235289,0.7966006935602579,-0.16967170243008847,-0.21013535184406112,0.10396476102992595
186,-0.02586879731114773,0.927556660844925,-0.1738744094669697,-0.45339304132526803,0.15091002078557728
187,-0.0073176640942492314,0.7680386054993407,-0.18294227029347504,-0.26858569542408817,0.0020104316734081596
188,0.008043108015737582,0.7731731824256323,-0.1883139842019568,-0.3296445546817298,0.12602684828594563
189,0.023506571664250228,0.6140905643577858,-0.1949068752955914,-0.1502768664375679,0.09552168895565785
190,0.03578838295140595,0.7698136745953882,-0.19791241262434275,-0.43637927319979286,0.3445084919697661
191,0.051184656443313714,0.32588517824039226,-0.2066399980883386,0.15870756008055809,0.19976881434717988
192,0.05770236000812156,0.9123195433159912,-0.20346584688672745,-0.762550848467111,0.39989329777935473
193,0.07594875087444139,0.4722237181467068,-0.21871686385606967,-0.1754315444343505,0.13179837134189953
