,X,v,theta,theta_dot,energy
0,0.0,0.0,-0.17453292519943295,0.0,0.0
1,0.0,0.5865243001720637,-0.17453292519943295,-0.9174730814433393,0.3135750568935878
2,0.011730486003441273,1.148389832456406,-0.19288238682829972,-1.7985199441933437,0.1496771841115602
3,0.03469828265256939,1.0141730312972348,-0.2288527857121666,-1.6572846138819644,0.35210717851892487
4,0.054981743278514086,0.6530758430810628,-0.2619984779898059,-1.196457951885455,0.2238812984917262
5,0.06804326014013534,0.2944644852169594,-0.285927637027515,-0.753047057729284,0.14607339258742855
6,0.07393254984447453,-0.24324085679802593,-0.3009885781821007,-0.0621569341210626,0.1475631812669177
7,0.06906773270851402,-0.8208327053468147,-0.30223171686452194,0.678120844724331,0.43599880616874087
8,0.05265107860157772,-1.3509755090477369,-0.2886692999700353,1.3497820991094516,0.7751590693850126
9,0.025631568420622985,-1.9295030477435655,-0.2616736579878463,2.0979722878300406,1.0801167849572062
10,-0.012958492534248325,-2.4979166817176583,-0.2197142122312455,2.8455110466468683,1.291299949058374
11,-0.06291682616860149,-3.0261019741997246,-0.16280399129830814,3.554664936815642,1.223100916981694
12,-0.12343886565259599,-3.4413808730467226,-0.0917106925619953,4.121693022523716,1.8010474020146077
13,-0.19226648311353045,-2.901987955773489,-0.009276832111520972,3.2890786649347703,0.050991495098740715
14,-0.2503062422290002,-2.8838796115061998,0.05650474118717444,3.2591899678020066,0.7351826632170276
15,-0.3079838344591242,-2.622044182775404,0.12168854054321457,2.883667201579081,0.35326743643955555
16,-0.3604247181146323,-2.484658499900046,0.17936188457479618,2.714800810555235,0.8048635071771268
17,-0.4101178881126332,-2.1544846702283764,0.23365790078590087,2.279935279614918,0.6319156554683499
18,-0.45320758151720075,-1.857594302184925,0.2792566063781992,1.9147733362259245,0.8715266070695392
19,-0.49035946756089926,-1.383857590681339,0.3175520731027177,1.3127351652901984,0.6951930388388645
20,-0.518036619374526,-0.8802364725764803,0.3438067764085217,0.6868722376187748,0.5105492093769756
21,-0.5356413488260556,-0.3040567953436739,0.3575442211608972,-0.027719164228440007,0.18314231904094264
22,-0.541722484732929,0.27144982303403686,0.3569898378763284,-0.7334931677909993,0.14407614721077153
23,-0.5362934882722483,0.8471590971214453,0.3423199745205084,-1.4398720521787363,0.46064073651753135
24,-0.5193503063298194,1.4110000365505608,0.31352253347693365,-2.1378731036886336,0.7907691332990592
25,-0.49113030559880816,1.9895073372477117,0.270765071403161,-2.872660443998715,1.0531760467259963
26,-0.4513401588538539,2.5366964720829444,0.21331186252318668,-3.5849043594087076,1.2830793874592095
27,-0.40060622941219504,3.0614329025869877,0.14161377533501252,-4.29193023640725,1.7204124758602883
28,-0.33937757136045527,2.477450863530672,0.055775170606867513,-3.3832306623826516,1.1522354615048649
29,-0.2898285540898418,1.9936240386060227,-0.011889442640785522,-2.6422295745017417,0.92556072737243
30,-0.24995607331772135,2.4756546203740886,-0.06473403413082035,-3.3687197570744067,1.3231580055496244
31,-0.20044298091023957,1.9204084218388688,-0.13210842927230848,-2.5566134340561666,1.0471760898816265
32,-0.1620348124734622,1.3563589473018052,-0.1832406979534318,-1.7566386040475066,0.5120589091734686
33,-0.13490763352742607,1.7482904964637345,-0.21837347003438196,-2.3882653432759513,0.9422831672026275
34,-0.09994182359815137,1.192471597714607,-0.26613877689990095,-1.63802986412737,0.6348065591756649
35,-0.07609239164385924,0.645701120650806,-0.2988993741824484,-0.9240732513774571,0.2884185639996197
36,-0.06317836923084312,0.1878190270864541,-0.31738083920999755,-0.354276803747808,0.09925777251273722
37,-0.05942198868911404,-0.3652757545268029,-0.3244663752849537,0.34217846158583365,0.17881766391538423
38,-0.0667275037796501,-0.8550477349709453,-0.317622806053237,0.9447746043077176,0.44381909697537797
39,-0.083828458479069,-1.3791749862651281,-0.29872731396708263,1.599821730973641,0.7718063718980118
40,-0.11141195820437157,-1.9473575153024227,-0.2667308793476098,2.327824456625422,1.0540004989732261
41,-0.15035910851042003,-2.4997346404566283,-0.22017439021510138,3.04959785013884,1.410993962783397
42,-0.2003538013195526,-3.0790399298507585,-0.15918243321232456,3.8333690554928985,0.8815499614756267
43,-0.26193459991656776,-3.374469801073134,-0.08251505210246658,4.224309031539483,1.5835867854997647
44,-0.32942399593803046,-2.8895377710811156,0.0019711285283230823,3.475154006290115,0.35836729364791275
45,-0.3872147513596528,-2.7615548684092923,0.07147420865412538,3.283759536637874,0.8201868891913814
46,-0.44244584872783865,-2.455723361890575,0.13714939938688286,2.8471790781524193,0.9408591462919845
47,-0.49156031596565014,-2.0628459221532527,0.19409298094993124,2.30359237547348,0.3811621304721585
48,-0.5328172344087152,-1.8754030414876104,0.24016482845940085,2.0844132006325338,0.6384700689754953
49,-0.5703252952384674,-1.5299555056907848,0.28185309247205154,1.6510456865830414,0.8318814117449717
50,-0.6009244053522831,-0.9796019674336202,0.31487400620371236,0.9398614343093903,0.5419987087172182
51,-0.6205164447009555,-0.4243893018834699,0.3336712348899002,0.23903846589640865,0.24847903699134555
52,-0.6290042307386249,0.15203268142812498,0.33845200420782834,-0.48161771941923437,0.07880892081339494
53,-0.6259635771100623,0.7283333224414885,0.32881964981944367,-1.1994121511330689,0.4059175623176357
54,-0.6113969106612326,1.3053663350900573,0.3048314067967823,-1.9236488494108075,0.732884816077212
55,-0.5852895839594314,1.8838966248294498,0.2663584298085661,-2.663197889121565,1.0121228248550969
56,-0.5476116514628424,2.4383024510920794,0.2130944720261348,-3.388093941809641,1.3720762048316697
57,-0.49884560244100085,3.021164866871122,0.14533259318994196,-4.180435354104922,1.6056592107960137
58,-0.4384223051035784,2.469326826834646,0.06172388610784352,-3.3188271512958805,0.3564223804015265
59,-0.38903576856688543,2.319172188751009,-0.004652656918074094,-3.075888804650381,0.8241785141722194
60,-0.34265232479186525,1.9502641542473227,-0.06617043301108172,-2.52390061845687,0.29859020901493766
61,-0.3036470417069188,2.1094099369065678,-0.11664844538021912,-2.7815367788176584,0.9518249333429213
62,-0.26145884296878746,1.6426756071080586,-0.1722791809565723,-2.120409899225577,0.6866751659747186
63,-0.2286053308266263,1.2125290056840905,-0.21468737894108383,-1.5351413395475264,0.48125226073281435
64,-0.20435475071294448,1.6238612442436082,-0.24539020573203435,-2.200609639220021,0.9164376556482975
65,-0.1718775258280723,1.0432346412456592,-0.2894023985164348,-1.4271836747973103,0.5887998149836041
66,-0.15101283300315912,0.46467198117107056,-0.317946072012381,-0.6793309136223644,0.25926095246623404
67,-0.1417193933797377,-0.10803615669597155,-0.3315326902848283,0.044765502786682454,0.05739839150682299
68,-0.14388011651365715,-0.6273274784333883,-0.33063738022909467,0.6855903055865823,0.30741286052951894
69,-0.15642666608232492,-1.1209771915179032,-0.316925574117363,1.2905116142218256,0.6199161026366512
70,-0.178846209912683,-1.6811346800049867,-0.2911153418329265,1.9972783003472645,0.9562031492081117
71,-0.21246890351278272,-2.2601840291614095,-0.2511697758259812,2.744922383133366,1.2831237059258132
72,-0.2576725840960109,-2.8412977681777147,-0.19627132816331389,3.5161720810437886,1.5220382517701079
73,-0.3144985394595652,-3.3927074689119348,-0.1259478865424381,4.270072474247894,1.4771980985344617
74,-0.3823526888378039,-2.9432161507337913,-0.04054643705748022,3.5642452390002264,0.430069385883676
75,-0.4412170118524797,-2.792295173615578,0.03073846772252431,3.3261324484519346,0.527656927907516
76,-0.49706291532479124,-2.597528951655252,0.097261116691563,3.0431568102431465,0.5074656028907992
77,-0.5490134943578963,-2.396949340153968,0.15812425289642593,2.7722590489898864,0.5668073951664614
78,-0.5969524811609757,-2.155167410043637,0.21356943387622365,2.4604057652460614,0.7849765910068315
79,-0.6400558293618483,-1.78389150877132,0.2627775491811449,1.9784578376410622,0.7609964730571361
80,-0.6757336595372747,-1.3512716545130148,0.3023467059339661,1.4281749328944202,0.6274969210392263
81,-0.702759092627535,-0.8830724329807027,0.3309102045918545,0.8452739403550482,0.5081055722588081
82,-0.720420541287149,-0.30634162494117,0.34781568339895547,0.12263355961999145,0.180662098009728
83,-0.7265473737859725,0.2695383737968836,0.3502683545913553,-0.5892519775272748,0.1187144390997502
84,-0.7211566063100348,0.7350540223599217,0.3384833150408098,-1.1442406817908344,0.4114805334681251
85,-0.7064555258628363,1.3116997190061943,0.3155985014049931,-1.8625056585559874,0.6913399714476288
86,-0.6802215314827125,1.8527263721508032,0.27834838823387337,-2.542710986354802,0.9794531003036182
87,-0.6431670040396964,2.3965767332350048,0.22749416850677734,-3.246305997175435,1.3511041667742854
88,-0.5952354693749963,2.9789426976726023,0.16256804856326862,-4.031039747064909,1.6782783107024106
89,-0.5356566154215442,2.394971449622183,0.08194725362197043,-3.1190477010159614,1.3520412573181149
90,-0.48775718642910054,2.979657566887474,0.019566299601651203,-3.9690682078133253,1.5420887522648399
91,-0.42816403509135104,2.4422508770316074,-0.059815064554615306,-3.1573603486793775,1.3796142847976611
92,-0.3793190175507189,1.8573123634007849,-0.12296227152820285,-2.2990968678877906,0.23499711932467438
93,-0.3421727702827032,1.7278526569201924,-0.16894420888595868,-2.1424333833732847,0.7284224510667284
94,-0.30761571714429936,1.294984164027148,-0.21179287655342438,-1.551808526710048,0.4508888354868792
95,-0.2817160338637564,1.6549984233089337,-0.24282904708762534,-2.1415660992525387,0.936624297053658
96,-0.2486160653975777,1.0743602756836301,-0.2856603690726761,-1.3668535464778957,0.5541769277147824
97,-0.22712885988390508,0.54810884490742,-0.312997440002234,-0.692311886333694,0.3109422429919774
98,-0.21616668298575667,-0.029194706374340185,-0.3268436777289079,0.0410448363976722,0.0140139058239675
99,-0.21675057711324347,-0.5196162972229026,-0.32602278100095444,0.6433428594481045,0.29511261466209016
100,-0.22714290305770152,-1.0964307834188252,-0.31315592381199236,1.3688261740404963,0.6221894545380076
101,-0.24907151872607802,-1.6741448715975402,-0.28577940033118243,2.102682155642283,0.9408696077629001
102,-0.28255441615802884,-2.2484058605279893,-0.24372575721833678,2.8462573528091655,1.130384100973435
103,-0.3275225333685886,-2.7644522762358275,-0.18680061016215346,3.5265017614084413,1.4281781941401834
104,-0.38281157889330514,-3.297405923013479,-0.11627057493398464,4.25742435343744,1.762638026422866
105,-0.4487596973535747,-2.7444233736197647,-0.031122087865235848,3.3994443997520607,0.2432416305026892
106,-0.50364816482597,-2.8359490748698155,0.036866800129805366,3.527518052392034,1.1008605431931513
107,-0.5603671463233663,-2.4347292497041337,0.10741716117764605,2.9369336441785743,0.3041607479957872
108,-0.6090617313174489,-2.306585165246656,0.16615583406121753,2.7773453378489887,0.7196394766566386
109,-0.655193434622382,-1.9866637795072175,0.2217027408181973,2.352697621090863,0.46763780598518706
110,-0.6949267102125264,-1.747101554569206,0.26875669324001455,2.066797366698862,0.6912780256204991
111,-0.7298687413039106,-1.3447481474827438,0.3100926405739918,1.5629996051138377,0.7318340608456357
112,-0.7567637042535654,-0.7930296774542235,0.34135263267626853,0.8646061431081788,0.4508382994745786
113,-0.7726242978026499,-0.22029059269684415,0.3586447555384321,0.15348577327570267,0.11705552787077342
114,-0.7770301096565867,0.3045150541540431,0.36171447100394616,-0.48043965508416,0.17043191357016918
115,-0.7709398085735059,0.8799411495956189,0.35210567790226294,-1.1836861305238175,0.4305484184174093
116,-0.7533409855815935,1.377990628675083,0.3284319552917866,-1.7835330305369688,0.7804824654274758
117,-0.7257811730080918,1.9555816003565718,0.2927612946810472,-2.5087781174157624,1.1060036739078498
118,-0.6866695410009603,2.5345057602124745,0.24258573233273198,-3.255367510578389,1.4141427524142656
119,-0.6359794257967109,3.1085270556584392,0.17747838212116418,-4.020565764508543,1.640986304641216
120,-0.5738088846835421,2.5632005900322996,0.09706706683099332,-3.1635198913076903,1.3090563365696575
121,-0.5225448728828961,3.09019779519409,0.03379666900483952,-3.921801665308055,1.6333924418305794
122,-0.46074091697901426,2.5430261136011896,-0.04463936430132158,-3.091578509767196,1.441753830207729
123,-0.40988039470699045,1.9579687392621148,-0.1064709344966655,-2.2279862889387108,0.9176901595656273
124,-0.37072101992174816,2.4405554887614933,-0.1510306602754397,-2.97901066063585,1.3844239649705783
125,-0.3219099101465183,1.8569868000199692,-0.2106108734881567,-2.1578565791785054,0.940277918729307
126,-0.28477017414611894,1.3398606613757718,-0.2537680050717268,-1.4607703237518872,0.10243818074490425
127,-0.2579729609186035,1.4207823743374004,-0.28298341154676454,-1.6520750132534936,0.8094205803441348
128,-0.22955731343185548,0.8418210126430258,-0.3160249118118344,-0.9002649557674066,0.44388325605374473
129,-0.21272089317899495,0.31029851833852384,-0.33403021092718255,-0.23383651715616838,0.16794491078810767
130,-0.20651492281222447,-0.22673306630819368,-0.33870694127030593,0.4307983887054092,0.10618759841579124
131,-0.21104958413838834,-0.7158486366206476,-0.33009097349619776,1.0251014363655653,0.4029701689993405
132,-0.2253665568708013,-1.2927147227764704,-0.30958894476888643,1.7483915876162979,0.7299676310851241
133,-0.2512208513263307,-1.870900585206979,-0.27462111301656045,2.4848668389188866,0.9885592715443178
134,-0.28863886303047026,-2.4133967016467275,-0.22492377623818272,3.1883908168504167,1.3627115247051849
135,-0.3369067970634048,-2.995736950659437,-0.16115595990117437,3.974327008520703,0.024512464677862285
136,-0.39682153607659354,-2.9874628120850386,-0.0816694197307603,3.9149015866513333,0.8752890783563615
137,-0.45657079231829434,-2.6837406539025,-0.0033713879977336353,3.4368527243448663,0.13780927288566225
138,-0.5102456053963443,-2.6305397539845328,0.0653656664891637,3.3560606417951613,0.8079285227175991
139,-0.562856400476035,-2.3128658744987467,0.13248687932506692,2.8997712708434022,0.7540704728901713
140,-0.60911371796601,-1.9770531758841978,0.19048230474193495,2.439303885706226,0.43341091918556857
141,-0.6486547814836939,-1.7529376135088586,0.23926838245605947,2.1648746526897007,0.8453064473001438
142,-0.6837135337538711,-1.2597444823718693,0.28256587550985346,1.5158359872933633,0.7163259539165765
143,-0.7089084234013086,-0.6808864680994408,0.3128825952557207,0.7639557482390735,0.3887580293642152
144,-0.7225261527632973,-0.10354770467740293,0.32816171022050217,0.03048603057327537,0.05423034610476
145,-0.7245971068568454,0.40571093682816217,0.3287714308319677,-0.5978809484330004,0.2222504539452195
146,-0.7164828881202822,0.9678500899846814,0.3168138118633077,-1.3010003296301407,0.4796480301774634
147,-0.6971258863205886,1.4739516337177712,0.29079380527070486,-1.9307788957649135,0.7086195270992249
148,-0.6676468536462331,1.965673293023116,0.25217822735540657,-2.5531015902707597,1.109365180369862
149,-0.6283333877857707,2.5453630567415586,0.20111619554999138,-3.3217768357595348,1.4379142646865615
150,-0.5774261266509396,3.128369901483127,0.13468065883480068,-4.11993029375546,1.6268596244625977
151,-0.5148587286212771,2.5899000128774827,0.052282052959691475,-3.280063307721581,0.2849933115188341
152,-0.46306072836372747,2.703588916006939,-0.013319213194740137,-3.434999724437591,1.5285963587477074
153,-0.4089889500435887,2.118268335373191,-0.08201920768349197,-2.56101246277188,0.14661312198485243
154,-0.3666235833361249,2.0475221447557135,-0.13323945693892958,-2.47933653712065,1.0086356907060696
155,-0.3256731404410106,1.5410485336176474,-0.18282618768134257,-1.7654162258758541,0.6143350796028707
156,-0.29485216976865763,1.951902997263307,-0.21813451219885965,-2.424878801335487,1.1069481868489968
157,-0.2558141098233915,1.37031872401622,-0.2666320882255694,-1.6367993846935502,0.7367219951053955
158,-0.22840773534306708,0.8226938948843499,-0.29936807591944037,-0.9218529535269816,0.2763044761283998
159,-0.2119538574453801,0.4842715179563742,-0.31780513498998,-0.5235028191147432,0.21925875562961156
160,-0.20226842708625262,0.028397384737872955,-0.32827519137227484,0.03419573758791261,0.017921343049818184
161,-0.20170047939149516,-0.5482062580088165,-0.32759127662051657,0.7581263419384643,0.309297452253271
162,-0.2126646045516715,-1.1250137833143081,-0.3124287497817473,1.4827273837953094,0.6363492190965144
163,-0.23516488021795764,-1.7028496163532796,-0.2827742021058411,2.2171544648995845,0.822531335713445
164,-0.2692218725450232,-2.197359482215119,-0.2384311128078494,2.8474280314180325,1.147137347173035
165,-0.3131690621893256,-2.734195156939503,-0.18148255217948875,3.560464232462048,1.5444651899506852
166,-0.3678529653281157,-3.317856066177039,-0.11027326753024778,4.3685141039765565,1.595785769505047
167,-0.43421008665165645,-2.819749291916294,-0.02290298545071666,3.5935374727588623,0.6410023039650156
168,-0.4906050724899823,-2.5843040402427886,0.04896776400446058,3.2337293286623088,0.16986779249990097
169,-0.5422911532948381,-2.5165372220468334,0.11364235057770676,3.1465917174819635,0.6151391874952955
170,-0.5926218977357748,-2.2646098599799602,0.17657418492734603,2.804477185115572,0.9724601433044896
171,-0.637914094935374,-1.8233615324379073,0.23266372862965748,2.20453946047816,0.6145934321822499
172,-0.6743813255841321,-1.4795084158407752,0.27675451783922067,1.7704447893948752,0.6966660794567081
173,-0.7039714939009476,-1.0004436073310035,0.3121634136271182,1.1595232757270217,0.5702864225485261
174,-0.7239803660475677,-0.42285285509109727,0.33535387914165865,0.42530115318106965,0.21712068868902742
175,-0.7324374231493896,0.09217604212206776,0.34385990220528007,-0.20745043357907456,0.043249304807347934
176,-0.7305939023069483,0.5900829220559529,0.3397108935336986,-0.8114755420323795,0.3331244500748408
177,-0.7187922438658293,1.1664743924393195,0.323481382693051,-1.5286874180723018,0.5890604681118875
178,-0.6954627560170429,1.681392328241138,0.29290763433160494,-2.167551065377554,0.951885983216348
179,-0.6618349094522201,2.260583940513121,0.24955661302405385,-2.9144466743725514,1.1659002298186292
180,-0.6166232306419577,2.7905198162210207,0.1912676795366028,-3.6121155216635383,1.509209642666035
181,-0.5608128343175373,3.348987588487095,0.11902536910333204,-4.378650419536411,1.8903507076046384
182,-0.49383308254779534,2.7647546930395004,0.03145236071260382,-3.473590497197188,1.564138089778683
183,-0.43853798868700533,2.179350605727568,-0.038019449231339944,-2.5866731945814356,1.1567015799343376
184,-0.394950976572454,2.7268610521374126,-0.08975291312296865,-3.418520400158864,1.405325784596576
185,-0.3404137555297057,2.194509022895633,-0.1581233211261459,-2.64955844632966,1.1413104564072412
186,-0.29652357507179306,1.6603094362187638,-0.2111144900527391,-1.9045504238680975,0.6184218298868858
187,-0.26331738634741775,1.280903050719536,-0.24920549853010104,-1.4096838614625031,0.41919052865620554
188,-0.237699325333027,1.617836245478618,-0.27739917575935114,-1.9719816054333679,0.8824689160335439
189,-0.20534260042345465,1.0617007759007802,-0.3168388078680185,-1.2501826288439388,0.6047578723941086
190,-0.18410858490543905,0.48420756527039843,-0.34184246044489724,-0.518659729264414,0.27345672332568366
191,-0.17442443360003107,-0.08409224850288044,-0.35221565503018554,0.18591036888303702,0.040766231549660935
192,-0.17610627857008868,-0.5972403826042303,-0.34849744765252477,0.8069562183123956,0.33759954955982546
193,-0.18805108622217329,-1.1733048239768809,-0.33235832328627685,1.5187124555059057,0.6646309170787907
194,-0.2115171827017109,-1.7504858470696032,-0.30198407417615875,2.241180768498931,0.8685628297097991
195,-0.24652689964310298,-2.257351956308416,-0.2571604588061801,2.879635049609463,1.27792517985836
196,-0.2916739387692713,-2.838497146391302,-0.19956775781399083,3.647912717817062,1.3767292171326566
