,X,v,theta,theta_dot,energy
0,0.0,0.0,-0.5235987755982988,0.0,0.0
1,0.0,-0.45528968136229353,-0.5235987755982988,0.444438645211003,0.2595352495547514
2,-0.00910579362724587,-1.0173192843941026,-0.5147100026940787,1.0275365160676484,0.5858586938458313
3,-0.029452179315127922,-1.5869460918043674,-0.4941592723727258,1.626540586034146,0.8932160841943179
4,-0.061191101151215274,-2.145803329280214,-0.4616284606520429,2.2250986859315676,1.2325660379910257
5,-0.10410716773681955,-2.719276852589232,-0.41712648693341153,2.8643197767031423,1.559279162377958
6,-0.1584927047886042,-3.2956512950890042,-0.3598400913993487,3.535641530693193,1.8860152068019778
7,-0.22440573069038428,-3.8753259306160603,-0.28912726078548484,4.245939352770894,0.4059969794989321
8,-0.3019122493027055,-3.7696555913790233,-0.20420847373006695,4.010188869741753,0.7954930641427952
9,-0.37730536113028595,-3.554447941857793,-0.1240046963352319,3.6344639444612783,0.7257946567183033
10,-0.44839431996744183,-3.3456334358900737,-0.05131541744600633,3.287283315056582,0.285565921501591
11,-0.5153069886852433,-3.258291813710533,0.01443024885512531,3.1413632272732412,1.3007861528277536
12,-0.580472824959454,-2.8510516363485405,0.07725751340059013,2.534808906406877,0.9504494647203524
13,-0.6374938576864247,-3.1903812840573873,0.12795369152872768,3.0649762301464136,1.8001494514105354
14,-0.7013014833675725,-2.6164277903916355,0.18925321613165597,2.248599838131328,0.6553212235789777
15,-0.7536300391754052,-2.871546294929557,0.23422521289428253,2.679753779099818,1.6523276477135076
16,-0.8110609650739963,-2.29008381744078,0.2878202884762789,1.8996100799329623,0.30098413239389665
17,-0.8568626414228119,-2.425195465874258,0.3258124900749381,2.177396482767312,0.9906537685585963
18,-0.905366550740297,-2.0167050725354785,0.36936041973028433,1.690999431962012,0.4491058225609842
19,-0.9457006521910066,-1.7974055559693305,0.40318040836952457,1.4903746139592193,0.4542910734558181
20,-0.9816487633103932,-1.549147684374512,0.43298790064870896,1.2631962305181252,0.7397508817576197
21,-1.0126317169978833,-1.0780314156795971,0.4582518252590715,0.7450944214039441,0.5686016902336944
22,-1.0341923453114752,-0.5614373607695716,0.47315371368715037,0.18021100702623905,0.31333681745514674
23,-1.0454210925268665,-0.02376687216676343,0.4767579338276752,-0.4037138846376551,0.019713792680613417
24,-1.0458964299702018,0.442834210079034,0.4686836561349221,-0.8906507313910671,0.23592488022684022
25,-1.0370397457686211,0.9953048147214187,0.4508706415071007,-1.4971886232516844,0.5601700559422751
26,-1.0171336494741927,1.568041526118643,0.420926869042067,-2.1423313513928335,0.8870027120220015
27,-0.9857728189518199,2.142866108725684,0.3780802420142103,-2.8091737545398976,1.1058024799301962
28,-0.9429154967773062,2.668844509453961,0.32189676692341235,-3.4338942490605895,1.5115180895564513
29,-0.889538606588227,3.249294811794804,0.25321888194220055,-4.166837501275554,1.3594825653968572
30,-0.8245527103523309,3.680927602946008,0.16988213191668947,-4.719986889260888,2.0808445949472247
31,-0.7509341582934107,3.098065669723869,0.07548239413147172,-3.8085742403069602,1.574810375886049
32,-0.6889728448989333,2.573027841471303,-0.0006890906746674919,-3.0010892647527436,0.517598478219863
33,-0.6375122880695072,2.7802686031577832,-0.06071087596972236,-3.3121529261192073,1.3959476690468071
34,-0.5819069160063516,2.262874269720364,-0.1269539344921065,-2.555329284680784,1.2888501397580119
35,-0.5366494306119443,1.6791876984753453,-0.1780605201857222,-1.7240698217314954,0.8827033322989665
36,-0.5030656766424374,2.2173948981384575,-0.2125419166203521,-2.5706898851084583,1.2623151254673382
37,-0.45871777867966823,1.635520763954701,-0.2639557143225213,-1.779536714009259,0.9346957463253746
38,-0.4260073634005742,1.0558481384683305,-0.29954644860270646,-1.0168477783605272,0.4106310392537029
39,-0.4048904006312076,0.6661442940710871,-0.319883404169917,-0.5450775752606808,0.362123638384402
40,-0.3915675147497859,0.12452667024321495,-0.3307849556751306,0.13368613518905448,0.06983612031554426
41,-0.3890769813449216,-0.3900876408461045,-0.32811123297134953,0.768273012291851,0.20570906610928577
42,-0.39687873416184366,-0.94393971240798,-0.3127457727255125,1.459988202839916,0.42582197891136697
43,-0.41575752841000324,-1.4089748554232848,-0.2835460086687142,2.033248602749197,0.7322241501695484
44,-0.4439370255184689,-1.944475253971644,-0.24288103661373028,2.722174979688565,1.0941727298711543
45,-0.4828265305979018,-2.525771741597837,-0.188437537019959,3.4978203329224518,1.2790992977798723
46,-0.5333419654298586,-3.0508547353122655,-0.11848113036150996,4.216429040317186,1.282096141770769
47,-0.5943590601361038,-2.614287832647821,-0.03415254955516625,3.5314176218894495,0.21109103078964003
48,-0.6466448167890603,-2.6981346060253353,0.03647580288262274,3.647075542391297,0.9323193102271712
49,-0.700607508909567,-2.3391037815837143,0.10941731373044868,3.119609037849144,0.9655171853233032
50,-0.7473895845412413,-1.9115813089758196,0.17180949448743155,2.514264813106953,0.33299992189655847
51,-0.7856212107207576,-1.7327889585280591,0.22209479074957061,2.300288673508245,0.74970600269228
52,-0.8202769898913188,-1.2879635628448667,0.2681005642197355,1.7141995656789843,0.7279184810698598
53,-0.8460362611482162,-0.708477033169008,0.30238455553331517,0.9539030117349797,0.387530589614873
54,-0.8602058018115963,-0.14926300153008099,0.32146261576801477,0.240692479714949,0.08333473949414136
55,-0.863191061842198,0.42760785835234705,0.32627646536231375,-0.48739725130941824,0.24395278539892543
56,-0.854638904675151,1.0043583920219,0.3165285203361254,-1.2126487214949313,0.5530226954779046
57,-0.8345517368347131,1.5634715679731765,0.29227554590622673,-1.9181415940943822,0.8877117437900964
58,-0.8032823054752496,2.1423979221680645,0.25391271402433907,-2.664992520075688,1.2146344000153688
59,-0.7604343470318883,2.723335168085688,0.20061286362282532,-3.4346077097516794,1.541639915406862
60,-0.7059676436701745,3.3064994893820745,0.13192070942779172,-4.233225470568843,1.8007249329917245
61,-0.639837653882533,2.7436429626282903,0.04725620001641487,-3.357604316407313,0.34003696029374925
62,-0.5849647946299672,2.6154732592317043,-0.019895886311731392,-3.1516762354399788,1.4741133958614734
63,-0.5326553294453331,2.033903631312924,-0.08292941102053097,-2.2853434516753226,1.1583684229339088
64,-0.4919772568190746,2.619737167848964,-0.12863628005403743,-3.1854270890375393,1.420548652259111
65,-0.4395825134620953,2.061417733185456,-0.19234482183478824,-2.3925822459551145,1.0196308356142556
66,-0.3983541587983862,1.5556179955068976,-0.24019646675389053,-1.704075383552381,0.6538811305086749
67,-0.36724179888824826,1.1291953035078208,-0.2742779744249382,-1.152745112253367,0.20498092832312792
68,-0.34465789281809184,1.3169282197281076,-0.2973328766700055,-1.503449065914232,0.6418117276253524
69,-0.31831932842352967,0.8232336873533534,-0.32740185798829013,-0.8815348147884101,0.4704314784586169
70,-0.3018546546764626,0.24735895026662402,-0.3450325542840583,-0.15815318476400753,0.14435862038767577
71,-0.2969074756711301,-0.3286290150819181,-0.34819561797933846,0.5554706753055069,0.1829088950614142
72,-0.3034800559727685,-0.90459157288445,-0.33708620447322835,1.2672556923536034,0.4873272963736816
73,-0.3215718874304575,-1.4555692257653532,-0.3117410906261563,1.9499734276061247,0.7543403276446415
74,-0.35068327194576454,-1.9857809835457578,-0.2727416220740338,2.6167829590713554,0.7932883843544923
75,-0.3903988916166797,-2.3954576930799814,-0.2204059628926067,3.129387505962424,1.122639501909989
76,-0.4383080454782793,-2.87833400005319,-0.15781821277335822,3.7719039326365102,1.3602987256006454
77,-0.4958747254793431,-3.367450845030125,-0.08238013412062802,4.4502552847488985,1.5605931544764253
78,-0.5632237423799455,-2.8871080240408675,0.006624971574349964,3.707992176736805,1.1811869207281336
79,-0.6209659028607629,-2.4632544900443043,0.08078481510908607,3.0741735553636658,0.23925419830908926
80,-0.670230992661649,-2.363290963400519,0.1422682862163594,2.9484421952603865,0.6277969371899919
81,-0.7174968119296594,-2.090001799837004,0.20123713012156713,2.584335962164515,0.7349530807688321
82,-0.7592968479263995,-1.7296128405701552,0.25292384936485746,2.113426675671475,0.8178675508511809
83,-0.7938891047378026,-1.246822741464152,0.295192382878287,1.4858508836142046,0.7051556969269676
84,-0.8188255595670857,-0.6719696818317884,0.32490940055057105,0.7463998022452979,0.37996807275966443
85,-0.8322649532037215,-0.10108094192697792,0.339837396595477,0.028721879740929324,0.049771178725378944
86,-0.8342865720422611,0.3768277665999811,0.3404118341902956,-0.5491428460007954,0.20878372141750967
87,-0.8267500167102615,0.9443981167047083,0.3294289772702797,-1.253485900154656,0.5043511106797286
88,-0.8078620543761673,1.4890369712378875,0.3043592592671866,-1.9314042556691922,0.8428761424096126
89,-0.7780813149514095,2.067591208429283,0.26573117415380276,-2.6712428674536497,1.1265945093793153
90,-0.7367294907828239,2.6267182615409363,0.21230631680472978,-3.4032872642382848,1.4847026886223624
91,-0.6841951255520051,3.2096173102881154,0.14424057151996408,-4.196054352707356,1.8052250668184282
92,-0.6200027793462428,2.62773726774986,0.06031948446581696,-3.290038384695356,0.6528591248202678
93,-0.5674480339912457,2.884450514128551,-0.005481283228090161,-3.656684763375773,1.6310528945938425
94,-0.5097590237086747,2.299093051191141,-0.07861497849560563,-2.7802732482004946,0.9014706187675746
95,-0.4637771626848518,1.8951569460808753,-0.13422044345961553,-2.1993294692925702,0.23477638040152438
96,-0.4258740237632343,2.023763005005536,-0.17820703284546693,-2.4298459589927552,1.149349812846088
97,-0.3853987636631236,1.441217472995159,-0.22680395202532205,-1.6219822237236305,0.07362559203774337
98,-0.3565744142032204,1.3915229427834515,-0.25924359649979467,-1.6154595973141752,0.6728258578458298
99,-0.32874395534755135,0.8998285988590828,-0.2915527884460782,-0.9779304042900692,0.18360114831738855
100,-0.31074738337036967,0.695823138294168,-0.3111113965318796,-0.7693434677387186,0.2944137060696094
101,-0.2968309206044863,0.2692669945124649,-0.326498265886654,-0.2502235305830097,0.155101940367548
102,-0.291445580714237,-0.30742110443596277,-0.3315027364983142,0.4748159453983619,0.17218835511092812
103,-0.2975940028029562,-0.8839763028265577,-0.3220064175903469,1.1968758284861045,0.42234355723139877
104,-0.3152735288594874,-1.3716825816000675,-0.29806890102062483,1.7977924923641515,0.6956481980336909
105,-0.34270718049148874,-1.890137300090347,-0.2621130511733418,2.454842585863374,1.069019028517537
106,-0.3805099264932957,-2.470585603731319,-0.21301619945607436,3.2195950021547555,1.3311675376602476
107,-0.42992163856792204,-3.0261276683101084,-0.14862429941297925,3.971919103214844,0.2162255675682478
108,-0.4904441919341242,-2.952321057523236,-0.06918591734868237,3.8188948285370317,1.0234241617389563
109,-0.5494906130845889,-2.5931347192252723,0.007191979222058262,3.261079856186111,0.0621383434033275
110,-0.6013533074690943,-2.56836922590712,0.07241357634578048,3.2260470006062545,0.5483149426497443
111,-0.6527206919872367,-2.3479372338672384,0.13693451635790557,2.917536537716013,0.7390901866821297
112,-0.6996794366645814,-2.023966114994437,0.19528524711222583,2.4762618963935057,0.7280632989464526
113,-0.7401587589644701,-1.655465976015322,0.24481048504009595,1.991067798058955,0.7952460647735136
114,-0.7732680784847766,-1.1652441301844767,0.28463184100127503,1.3489177484984933,0.6639816238175416
115,-0.7965729610884662,-0.5865835335549716,0.3116101959712449,0.5984067944277468,0.3364462090553428
116,-0.8083046317595657,-0.009266539590851774,0.32357833185979984,-0.1357263414924912,0.008778034171700741
117,-0.8084899625513827,0.5487454905672088,0.32086380502995,-0.8358256653347685,0.2747026969785198
118,-0.7975150527400385,1.0637559835702222,0.3041472917232546,-1.4761911806815093,0.5996692551324222
119,-0.776239933068634,1.6418668013902766,0.2746234681096244,-2.2155097558036303,0.9266173560070092
120,-0.7434025970408285,2.2216679084843527,0.2303132729935518,-2.9728931596963046,1.253559149915576
121,-0.6989692388711414,2.8035957050672526,0.1708554097996257,-3.7556210210387784,0.49270750408844066
122,-0.6428973247697963,2.9856113851687143,0.09574298937885015,-3.9746817754504127,1.5044974591592002
123,-0.5831850970664221,2.46284018988298,0.016249353869841887,-3.1660108569825964,0.5332367385682987
124,-0.5339282932687625,2.238433515296032,-0.04707086326981004,-2.824668183824963,0.7230234573591345
125,-0.4891596229628418,1.9045545463340314,-0.1035642269463093,-2.3382381751944386,0.20535322694809466
126,-0.4510685320361612,2.016746072897783,-0.15032899045019807,-2.536017268121882,1.0067203177155002
127,-0.41073361057820557,1.5027292131380325,-0.2010493358126357,-1.8177181547589183,0.27399286703085973
128,-0.3806790263154449,1.317462142055308,-0.23740369890781407,-1.604126248572349,0.4458804415930415
129,-0.35432978347433874,0.9726702163748315,-0.269486223879261,-1.1705874276072736,0.19083393542279006
130,-0.3348763791468421,0.7749919462067494,-0.2928979724314065,-0.9630454393373791,0.3907295395372665
131,-0.3193765402227071,0.2619167920435642,-0.31215888121815405,-0.31109564045729554,0.1415590615618869
132,-0.3141382043818358,-0.28595990818606076,-0.31838079402729996,0.3807118751201737,0.16170243081604907
133,-0.31985740254555706,-0.8629693054007452,-0.3107665565248965,1.1106977129051996,0.488840312954595
134,-0.337116788653572,-1.4405758493839855,-0.28855260226679247,1.8457041803104441,0.7984134058080816
135,-0.36592830564125167,-2.0071175784680015,-0.25163851866058357,2.576720666400775,1.0403102139118023
136,-0.4060706572106117,-2.539016914969099,-0.20010410533256806,3.2762385963321976,1.3856909058410274
137,-0.4568509955099937,-3.101802459943071,-0.1345793334059241,4.045133306978164,0.8509994653057541
138,-0.5188870447088552,-2.8179643081115135,-0.05367666726636082,3.5837788379429045,0.12841050784850516
139,-0.5752463308710855,-2.770694546676208,0.017998909492497273,3.4972029526484074,0.8457339414748983
140,-0.6306602218046096,-2.4548530414378553,0.08794296854546542,3.0288088265850357,0.021169040575510046
141,-0.6797572826333667,-2.446417377188276,0.14851914507716613,3.0420261479268773,0.9785439521482517
142,-0.7286856301771322,-2.0346264946923265,0.20935966803570366,2.474644034191462,0.6439966477871908
143,-0.7693781600709787,-1.7109768161167582,0.2588525487195329,2.0608733181530945,0.7759729099463799
144,-0.8035976963933139,-1.248640021076703,0.3000700150825948,1.4657283364872473,0.5653108176253665
145,-0.828570496814848,-0.7896983971650258,0.32938458181233976,0.8949796680071446,0.41279149153810535
146,-0.8443644647581485,-0.26185800375271173,0.34728417517248267,0.24088033330266345,0.15094294202036607
147,-0.8496016248332028,0.31405616887678045,0.3521017818385359,-0.4713567014871135,0.17634646658844355
148,-0.8433205014556672,0.8898433731295214,0.34267464780879364,-1.1806584473305697,0.42709617610138934
149,-0.8255236339930767,1.3783115723944483,0.3190614788621822,-1.7719747612620482,0.7808404124377056
150,-0.7979574025451878,1.9562062690866386,0.28362198363694124,-2.502846875222489,1.0110851425875393
151,-0.758833277163455,2.4853217238765644,0.23356504613249146,-3.182539951979396,1.3192953112962553
152,-0.7091268426859236,3.0314399307013122,0.16991424709290354,-3.9114290301243946,0.547305791109546
153,-0.6484980440718974,2.844952573646338,0.09168566649041564,-3.5860115628166493,0.6230361523739025
154,-0.5915989925989706,2.6183161641050834,0.019965435234082646,-3.2205669856427703,0.5342481135047064
155,-0.539232669316869,2.407386354713636,-0.044445904478772766,-2.898365881875017,0.8379227141930125
156,-0.49108494222259624,2.0485366904346356,-0.1024132221162731,-2.373685756135953,0.40791908247661446
157,-0.45011420841390354,2.254255503759951,-0.14988693723899216,-2.7107040148108883,1.2797888739232928
158,-0.4050290983387045,1.6708885355055483,-0.20410101753520993,-1.8893666000061908,0.628331031920467
159,-0.3716113276285935,1.2879471542847138,-0.24188834953533375,-1.3864672136132192,0.39014017773234566
160,-0.34585238454289924,1.5997372859769385,-0.26961769380759815,-1.9109605781949273,0.9098855873375935
161,-0.3138576388233605,1.020113550415219,-0.3078369053714967,-1.1512459603578216,0.5056683663277252
162,-0.2934553678150561,0.5188632769329359,-0.33086182457865315,-0.5237966952253205,0.2978319558221642
163,-0.2830781022763974,-0.05773086554564455,-0.34133775848315956,0.19867685524398537,0.02952907286105518
164,-0.2842327195873103,-0.6338619682967124,-0.33736422137827987,0.9146001104668262,0.3567054067889654
165,-0.2969099589532445,-1.210396588024762,-0.31907221916894335,1.6333391837617315,0.683720006619946
166,-0.32111789071373975,-1.7881474787411364,-0.2864054354937087,2.3640005575748715,1.0106345481872783
167,-0.3568808402885625,-2.367782190652038,-0.2391254243422113,3.1149792399462246,1.3116798096069924
168,-0.40423648410160323,-2.938421772115477,-0.1768258395432868,3.8769479196129226,1.1810166571596332
169,-0.46300491954391276,-3.3544521276999344,-0.09928688115102834,4.439546408674828,1.839929941139771
170,-0.5300939620979115,-2.7860406329140934,-0.010495952977531767,3.561985809059837,0.748743120156551
171,-0.5858147747561934,-2.5076607967425275,0.060743763203664966,3.141353301865711,0.02569570594529772
172,-0.6359679906910439,-2.4973503984144307,0.12357082924097919,3.1437639140281797,0.9274027151514765
173,-0.6859149986593326,-2.114339062763384,0.18644610752154278,2.609865133768733,0.47601710817706455
174,-0.7282017799146002,-1.8839085987449031,0.23864341019691743,2.324707873498471,0.7659443561820453
175,-0.7658799518894983,-1.4682814834473021,0.28513756766688686,1.788432894384743,0.7852056228647133
176,-0.7952455815584444,-0.9235865185377536,0.3209062255545817,1.087079301497937,0.46713569556544854
177,-0.8137173119291995,-0.411505853823775,0.34264781158454044,0.4509063478851383,0.23533972431808192
178,-0.821947429005675,0.16462950849326474,0.3516659385422432,-0.26428039328801756,0.0920046349017917
179,-0.8186548388358097,0.7403823767838533,0.34638033067648283,-0.9737838162707642,0.41916279338773726
180,-0.8038471913001326,1.316622925734019,0.3269046543510675,-1.6869966579838174,0.6952691136490954
181,-0.7775147327854522,1.8545360951024075,0.2931647211913912,-2.3567279967260717,0.8491516017994007
182,-0.7404240108834041,2.3223215629575633,0.24603016125686977,-2.9435073714307785,1.2400486208387393
183,-0.6939775796242529,2.8706132992785225,0.1871600138282542,-3.6695735168590615,1.4196993161424791
184,-0.6365653136386824,3.3810450582733598,0.11376854349107297,-4.367146005965353,1.8047711388369017
185,-0.5689444124732153,2.8289020520517187,0.02642562337176592,-3.510909780566308,1.6016124257620221
186,-0.5123663714321809,2.243505050612536,-0.043792572239560235,-2.6253526244814873,1.1869383698860505
187,-0.4674962704199302,2.7888313900895976,-0.09629962472918999,-3.4554287946163122,1.2353559990414016
188,-0.41171964261813826,2.3316790599339763,-0.16540820062151623,-2.80114578561904,1.3240469159246544
189,-0.36508606141945876,1.7485387338147715,-0.22143111633389703,-1.9867825851886298,0.8145029046139202
190,-0.3301152867431633,1.2739894517777062,-0.26116676803766964,-1.3569085071800273,0.08313040000909064
191,-0.30463549770760917,1.3435356807469365,-0.2883049381812702,-1.5336034469653883,0.708204760844633
192,-0.27776478409267047,0.8089044371412518,-0.31897700712057797,-0.84834746440001,0.4106251165764269
193,-0.2615866953498454,0.2979704642252149,-0.33594395640857816,-0.21280331121107887,0.16026648911043248
194,-0.25562728606534113,-0.23466481516050497,-0.34020002263279975,0.44456758769382343,0.12329442550104522
195,-0.2603205823685512,-0.7837009600490336,-0.3313086708789233,1.1228215743371641,0.438625491886474
196,-0.27599460156953187,-1.3572599118403113,-0.30885223939218,1.8407400621013885,0.7244742213379094
197,-0.3031397998063381,-1.9038614688020632,-0.2720374381501522,2.532481318589615,1.0152896162487965
