,X,v,theta,theta_dot,energy
0,0.0,0.0,0.17453292519943295,0.0,0.0
1,0.0,0.5630367917210028,0.17453292519943295,-0.7806719323428677,0.29850244973747464
2,0.011260735834420057,1.1109890879367657,0.1589194865525756,-1.539060872499978,0.625052311147753
3,0.03348051759315537,1.6934124300090412,0.12813826910257603,-2.3551611699239903,0.8579707704133619
4,0.0673487661933362,2.219111657382643,0.08103504570409623,-3.099675466447922,0.7602231816787155
5,0.11173099934098905,2.575391707888214,0.019041536375137787,-3.608543582180302,1.3859675433113559
6,0.16323883349875334,2.014643671053411,-0.053129335268468254,-2.761976135982982,0.27081421385054427
7,0.20353170691982156,1.8752094259670746,-0.1083688579881279,-2.568732564550202,0.578015438959443
8,0.24103589543916304,1.5558315106393639,-0.15974350927913195,-2.1242740950343273,0.29610016417395024
9,0.2721525256519503,1.7547607272063126,-0.2022289911798185,-2.4656339099869795,0.8543889332994697
10,0.30724774019607654,1.251335337494134,-0.2515416693795581,-1.7849354475304915,0.5153527155363972
11,0.3322744469459592,0.8273589668582894,-0.2872403783301679,-1.2421606258972475,0.2773262073091183
12,0.34882162628312496,0.48302325070427465,-0.3120835908481129,-0.8301107252689364,0.18814167362857498
13,0.3584820912972105,0.07935345702942292,-0.3286858053534916,-0.34412482292483376,0.03836441205509032
14,0.36006916043779896,-0.49164299114716065,-0.3355683018119883,0.37161640453113504,0.28540378353890056
15,0.3502363006148558,-1.0680204604330985,-0.3281359737213656,1.0911440602969424,0.4734354323846723
16,0.32887589140619383,-1.513070168179478,-0.30631309251542677,1.6283499656711724,0.7879147547888553
17,0.29861448804260426,-2.0392483069752907,-0.2737460932020033,2.292223870783468,1.0459711743476132
18,0.25782952190309844,-2.560578086896464,-0.22790161578633397,2.96562097858731,1.105354870319546
19,0.20661796016516915,-3.0017819475203296,-0.16858919621458776,3.5438896502360526,1.4181119094329468
20,0.14658232121476256,-3.487252345060035,-0.09771140320986671,4.212440325150369,1.3989468865169847
21,0.07683727431356185,-3.073767448341612,-0.013462596706859328,3.5664899788961333,1.143796386891585
22,0.015361925346729616,-2.6905037596696433,0.05786720287106334,2.987688658694793,0.2954716156028942
23,-0.038448149846663254,-2.578042503467105,0.11762097604495919,2.836282601781334,0.37735883406846393
24,-0.09000899991600536,-2.428707205949295,0.17434662808058587,2.6483282628596894,1.2929540392286685
25,-0.13858314403499128,-1.885278169140553,0.22731319333777966,1.8965408378734934,0.6900937168474321
26,-0.17628870741780234,-1.5153248128834529,0.26524401009524956,1.4221421815647655,0.8719152159323945
27,-0.2065952036754714,-0.9359828641577147,0.29368685372654485,0.6605904458903593,0.38947268303424154
28,-0.2253148609586257,-0.5235665685041788,0.30689866264435206,0.153561637105877,0.3101495316857403
29,-0.2357861923287093,0.053820251878358594,0.3099698953864696,-0.5832325844957883,0.015903202434136322
30,-0.2347097872911421,0.5899963174635173,0.2983052436965538,-1.2594888599843486,0.2821699423991898
31,-0.22290986094187176,1.0977035943261026,0.27311546649686685,-1.9010093503741485,0.6084443090768552
32,-0.20095578905534972,1.6772104035589503,0.23509527948938388,-2.658749208662555,0.8588134345739699
33,-0.16741158098417072,2.2108914516196223,0.1819202953161328,-3.3687670751668786,1.1381211924835917
34,-0.12319375195177827,2.748204406568668,0.11454495381279522,-4.108246429338505,1.2536525692202463
35,-0.0682296638204049,2.2715267371918157,0.032380025226025136,-3.3643128794344985,1.0141446051656828
36,-0.022799129076568593,1.8044522009193338,-0.03490623236266484,-2.6545502627911732,0.010259251264356893
37,0.013289914941818082,1.8106554107355108,-0.0879972376184883,-2.6741097577948367,0.8686450741931441
38,0.0495030231565283,1.3101017291259702,-0.14147943277438502,-1.9520222050449108,0.555085267639612
39,0.0757050577390477,1.753907213182824,-0.18051987687528323,-2.6525353143745716,0.9815557920803663
40,0.11078320200270418,1.1712163382009488,-0.23357058316277465,-1.8454867286344168,0.49802559077072106
41,0.13420752876672315,0.7296411401513296,-0.270480317735463,-1.2691566836727888,0.3144914832400568
42,0.14880035156974974,0.28020728309131193,-0.2958634514089188,-0.6980713518114596,0.12251266413981089
43,0.15440449723157598,-0.19124827051862386,-0.309824878445148,-0.10733498235793915,0.11753594144657423
44,0.1505795318212035,-0.768526569678156,-0.3119715780923068,0.627715313376351,0.44479023184991334
45,0.1352090004276404,-1.3458413384053556,-0.2994172718247798,1.3616481477125502,0.7461120496900413
46,0.10829217365953328,-1.904602739685266,-0.2721843088705288,2.075780823747266,1.0642738675028318
47,0.07020011886582796,-2.471656379192118,-0.2306686923955835,2.81601021593251,1.4077728962999838
48,0.020766991281985593,-3.0533740941135328,-0.1743484880769333,3.5982586946389037,1.4442495005815073
49,-0.040300490600285066,-3.539358110612077,-0.10238331418415521,4.26518410775498,1.916536465270501
50,-0.11108765281252661,-2.981308182307174,-0.017079632029055616,3.4024445030335517,0.23256935588409347
51,-0.1707138164586701,-2.9009888032425106,0.05096925803161542,3.2769618390304354,0.6322437081009629
52,-0.2287335925235203,-2.6771385591077403,0.11650849481222413,2.9566010025472256,0.6638593820144394
53,-0.2822763637056751,-2.423487295972315,0.17564051486316865,2.612879584292356,0.6076560337666697
54,-0.3307461096251214,-2.1684043366489605,0.22789810654901577,2.2875151090565873,0.8029086737615017
55,-0.3741141963581006,-1.7929682336803001,0.2736484087301475,1.8053457510283049,0.8810595869646025
56,-0.4099735610317066,-1.297101231224701,0.30975532375071363,1.1686733580519975,0.7480210220132796
57,-0.43591558565620064,-0.7194204019501298,0.33312879091175357,0.43301016597861575,0.42050896744395894
58,-0.45030399369520324,-0.14293707640595166,0.34178899423132586,-0.28803715976378264,0.09317095510507115
59,-0.4531627352233223,0.433191261074484,0.3360282510360502,-1.0037008873527697,0.21698708049151963
60,-0.4444989100018326,0.9676448181802719,0.3159542332889948,-1.6636010618232855,0.4521302460680767
61,-0.4251460136382272,1.4534524517215357,0.2826822120525291,-2.264888778627914,0.8123834904008342
62,-0.3960769646037965,2.0330729868662054,0.2373844364799708,-3.017806386846632,1.024858603787484
63,-0.3554155048664724,2.5563277580410384,0.17702830874303815,-3.7115402063253327,0.5909016247768558
64,-0.3042889497056516,2.3154761774929193,0.1027975046165315,-3.304134204791242,0.23512110079709028
65,-0.2579794261557932,2.4209428485572277,0.03671482052070667,-3.43132980558527,1.1881412500325625
66,-0.20956056918464866,1.909118480608011,-0.031911775590998726,-2.6533189091983704,0.31954497747779864
67,-0.17137819957248845,2.0836297210445496,-0.08497815377496613,-2.924332964244313,1.1709542852661192
68,-0.12970560515159746,1.4990767151307596,-0.1434648130598524,-2.07562098840096,0.08975789060077345
69,-0.09972407084898227,1.5626918594501784,-0.1849772328278716,-2.212097501527039,0.8785791467110201
70,-0.0684702336599787,0.9804817919039427,-0.22921918285841236,-1.4077544745582347,0.34235381414643656
71,-0.048860597821899845,1.3455249857279517,-0.25737427234957705,-2.0077990756010253,0.7352313390134857
72,-0.02195009810734081,0.7804333617721273,-0.29753025386159754,-1.2629168060276095,0.43546116253462064
73,-0.006341430871898264,0.20226674722573124,-0.3227885899821497,-0.5199598685942974,0.10793532630632127
74,-0.0022960959273836392,-0.3746209802041436,-0.33318778735403565,0.2074208323926786,0.21942293955590744
75,-0.00978851553146651,-0.9510563887783776,-0.32903937070618205,0.9283671606475432,0.47294768556801253
76,-0.028809643307034064,-1.4496247715666462,-0.3104720274932312,1.5410984111073556,0.8295628481307636
77,-0.05780213873836699,-2.0275794629166226,-0.2796500592710841,2.2767625757623597,1.0264281103377653
78,-0.09835372799669945,-2.541834820663496,-0.2341148077558369,2.9370293118717186,1.4466844364967435
79,-0.14919042440996938,-3.123625837192884,-0.17537422151840254,3.7177062928331512,1.0902326039494972
80,-0.21166294115382706,-3.4825047012004893,-0.10102009566173951,4.196471364453059,1.9752866467472787
81,-0.28131303517783685,-2.8978676410014774,-0.017090668372678336,3.2943372431581786,0.38700186128012914
82,-0.3392703879978664,-3.035187536760769,0.04879607649048523,3.4952625932100134,1.4314665352160616
83,-0.3999741387330818,-2.5499528440032515,0.1187013283546855,2.7826172648153618,0.1110384375271895
84,-0.4509731956131468,-2.5061144983677033,0.17435367365099275,2.7521387602013845,0.7417099564800248
85,-0.5010954855805009,-2.2043611629694433,0.22939644885502045,2.357371806275694,0.9925557713199006
86,-0.5451827088398897,-1.7470543250090826,0.27654388498053434,1.756233700411464,0.3451209067190875
87,-0.5801237953400714,-1.5495375851079067,0.3116685589887636,1.551487169644114,0.883082028166011
88,-0.6111145470422296,-0.9759094763927965,0.3426983023816459,0.8226526128321657,0.5644772996948524
89,-0.6306327365700855,-0.3996220588457229,0.3591513546382892,0.1072796941444224,0.2370352107954058
90,-0.6386251777469999,0.1758269297586017,0.3612969485211776,-0.597484307223594,0.09021909950703173
91,-0.6351086391518279,0.7513120291191023,0.3493472623767057,-1.3010558524138958,0.4172929526705362
92,-0.6200823985694459,1.3276897537848291,0.3233261453284278,-2.0127677851948578,0.630280792721818
93,-0.5935286034937494,1.8167545450957547,0.28307078962453064,-2.6149425084548756,0.9698070766058873
94,-0.5571935125918343,2.3675967366331743,0.23077193945543312,-3.3262065706660637,1.3316233714311796
95,-0.5098415778591707,2.9500085837359977,0.16424780804211184,-4.109418493412231,1.6588102400960563
96,-0.4508414061844508,2.3661653679482866,0.08205943817386722,-3.1973680099063704,0.9382127089452719
97,-0.40351809882548506,2.7777269615616613,0.018112077975739813,-3.7885346432113414,1.5633574131770405
98,-0.34796355959425185,2.1923690682286363,-0.05765861488848702,-2.9053171583219246,1.2364943213185486
99,-0.3041161782296791,1.607495853808084,-0.11576495805492551,-2.046407489609056,0.7634253555466587
100,-0.27196626115351746,2.0996973759829545,-0.15669310784710663,-2.813727035616433,1.0303608940614104
101,-0.22997231363385837,1.5923704041346662,-0.21296764855943529,-2.1079391654816777,0.8995045328142559
102,-0.19812490555116505,1.0109515866291379,-0.25512643186906886,-1.3176543438214985,0.025245436208233666
103,-0.1779058738185823,0.9882929896429277,-0.2814795187454988,-1.3589627075970214,0.45429756505109936
104,-0.15814001402572375,0.5172874168573613,-0.30865877289743926,-0.7619251323534248,0.22149025341902728
105,-0.14779426568857654,0.07811214991245424,-0.32389727554450776,-0.22360577094410217,0.03831974843231101
106,-0.14623202269032745,-0.45948744365348,-0.3283693909633898,0.4472931766670166,0.23413542505855653
107,-0.15542177156339704,-0.970181783655621,-0.3194235274300495,1.0775896930570492,0.5464293585037183
108,-0.17482540723650947,-1.5394071551596318,-0.2978717335689085,1.7959160435068653,0.8579006125065175
109,-0.2056135503397021,-2.105634590343387,-0.2619534126987712,2.5215700093922595,1.1965358648175257
110,-0.24772624214656985,-2.686170827236375,-0.211522012510926,3.2865311629486436,1.5235123630842717
111,-0.30144965869129736,-3.268925700472228,-0.14579138925195312,4.079456471433737,0.8484228561921008
112,-0.3668281727007419,-3.001290967984484,-0.06420225982327837,3.639552291349836,0.2819571358040044
113,-0.4268539920604316,-2.9042338285016838,0.008588786003718346,3.4754040263027632,0.7977546137261149
114,-0.4849386686304653,-2.6208734155882865,0.07809686652977361,3.052904155914277,0.04530351812176139
115,-0.537356136942231,-2.639072243633186,0.13915494964805916,3.103056338738036,1.017306119347411
116,-0.5901375818148947,-2.2433122454199106,0.20121607642281988,2.5559343717672838,0.6972790861096653
117,-0.6350038267232929,-1.9264145088241356,0.25233476385816556,2.1489373779444167,0.8040712402015625
118,-0.6735321168997757,-1.502580642590607,0.29531351141705386,1.6067210851273406,0.7107161349971339
119,-0.7035837297515878,-1.0249552339545793,0.3274479331196007,1.0068626034640027,0.4799215630190776
120,-0.7240828344306793,-0.5556474624790546,0.34758518518888076,0.43486359313043277,0.32225551611633896
121,-0.7351957836802604,0.02029857942548463,0.3562824570514894,-0.2772466394815465,0.00508544840579164
122,-0.7347898120917506,0.5958789013179154,0.3507375242618585,-0.983852395533756,0.3322394915552567
123,-0.7228722340653924,1.17196532033185,0.3310604763511834,-1.6943578195815707,0.6592325979125988
124,-0.6994329276587553,1.7493692468402426,0.297173319959552,-2.4178690221447505,0.9857066354280908
125,-0.6644455427219504,2.3285063653697806,0.24881593951665698,-3.1624089353718787,1.312896602879816
126,-0.6178754154145548,2.9102705739046764,0.1855677608092194,-3.9357824075982077,0.8508199779461173
127,-0.5596700039364613,2.6075280406846093,0.10685211265725525,-3.4352206448446303,0.9762621038747941
128,-0.5075194431227691,2.9953788025867807,0.03814769976036264,-3.982323991843778,1.5568325172143256
129,-0.44761186707103345,2.4558071870302305,-0.04149878007651292,-3.162342700849652,1.3874834069699387
130,-0.3984957233304288,1.870704723912175,-0.10474563409350596,-2.297641762586022,0.5102748729239023
131,-0.3610816288521853,2.153148351813187,-0.1506984693452264,-2.7497241095532545,1.2180933330832195
132,-0.3180186618159216,1.5697658230415223,-0.2056929515362915,-1.9287058456263289,0.6079589867913416
133,-0.28662334535509115,1.17350183313343,-0.24426706844881807,-1.4068881065181076,0.25163133966877443
134,-0.26315330869242254,1.3962790779661114,-0.27240483057918025,-1.802236700396717,0.7179378147817639
135,-0.2352277271331003,0.8704132423196975,-0.3084495645871146,-1.1216238071003042,0.49320847526378214
136,-0.21781946228670634,0.2927188281150075,-0.3308820407291207,-0.385231303228591,0.13912810374016818
137,-0.2119650857244062,-0.19066025462910335,-0.33858666679369254,0.20499287091425777,0.09775450062641257
138,-0.21577829081698827,-0.7064182139806623,-0.33448680937540737,0.837053239176873,0.3491215967658555
139,-0.22990665509660152,-1.2063358615407849,-0.3177457445918699,1.4488551040584043,0.6860916856764293
140,-0.25403337232741724,-1.7839597031962378,-0.2887686425107018,2.180065700689293,1.0130302562384044
141,-0.289712566391342,-2.363293384993999,-0.24516732849691592,2.9293624933240725,1.3399498039178324
142,-0.336978434091222,-2.9448076879319283,-0.18658007863043446,3.704190890400473,1.1898614243627947
143,-0.39587458784986057,-3.3614437966709447,-0.112496260822425,4.263761753197846,1.7027356009812111
144,-0.4631034637832795,-2.8379751218422262,-0.027221025758468076,3.450517851590505,0.02166006047076055
145,-0.519862966220124,-2.830019957532925,0.04178933127334203,3.4305875325797257,0.9389904796877543
146,-0.5764633653707825,-2.4876641284599534,0.11040108192493654,2.9297846158338667,0.040404696152535294
147,-0.6262166479399816,-2.471593452338997,0.16899677424161388,2.9382173826055924,1.2427561895890273
148,-0.6756485169867615,-1.9556333952896687,0.22776112189372574,2.2247517372891736,0.32420454377603514
149,-0.7147611848925549,-1.7880564678084434,0.2722561566395092,2.0462623439935883,0.7065960290901456
150,-0.7505223142487237,-1.387050139509405,0.31318140351938095,1.5459665787442138,0.6799940979916843
151,-0.7782633170389118,-0.8916001983339888,0.34410073509426525,0.9295185369617911,0.4422097653137324
152,-0.7960953210055917,-0.3936274244429162,0.36269110583350106,0.3255276971199501,0.20159778040180842
153,-0.80396786949445,0.11480827045053621,0.3692016597759001,-0.28320302965217004,0.058123385836268984
154,-0.8016717040854393,0.6565153054574528,0.36353759918285666,-0.9349137164228669,0.36999456807999975
155,-0.7885413979762903,1.2320930447993645,0.34483932485439933,-1.6373134399804794,0.6969909935235029
156,-0.763899537080303,1.8089568809436831,0.31209305605478976,-2.3522836761637,1.0238792313775003
157,-0.7277203994614293,2.3877962776574053,0.2650473825315158,-3.0883266925553357,1.3507623705257725
158,-0.6799644739082812,2.9690555209064904,0.20328084868040908,-3.852754507691442,1.5035999536214983
159,-0.6205833634901514,3.492170691763003,0.12622575852658025,-4.5619166502802955,1.9552200236510147
160,-0.5507399496548914,2.913026082418368,0.034987425520974336,-3.6630992552448474,1.3945432995916895
161,-0.492479428006524,2.417668962717443,-0.03827455958392262,-2.910234107080295,0.6033225121565136
162,-0.44412604875217515,2.1604119005999043,-0.09647924172552852,-2.535881102677991,0.6567600968748363
163,-0.40091781074017707,1.8482284165168599,-0.14719686377908833,-2.098104509568231,0.48542572997621625
164,-0.3639532424098399,2.1192234202789106,-0.18915895397045296,-2.5433210124496464,1.2037690215608803
165,-0.3215687740042617,1.5368262026053428,-0.2400253742194459,-1.7405894311058328,0.43412435104032693
166,-0.29083224995215484,1.2505891581178474,-0.27483716284156257,-1.39343447257431,0.3181901619226722
167,-0.26582046678979787,0.9943099623631393,-0.30270585229304875,-1.103231868985269,0.3466782449581942
168,-0.24593426754253508,0.6430229053588498,-0.3247704896727541,-0.687901658968638,0.36081567826473887
169,-0.2330738094353581,0.07760445991230924,-0.33852852285212687,0.02207643859206343,0.042328621059232095
170,-0.23152172023711193,-0.4394550632878511,-0.3380869940802856,0.6560094097877714,0.2467562309023385
171,-0.24031082150286895,-1.0158329219328344,-0.32496680588453014,1.3741190540772021,0.5738252860543207
172,-0.26062747994152563,-1.5931416061625594,-0.2974844248029861,2.100891188280075,0.7617345863277016
173,-0.2924903120647768,-2.08232416612174,-0.2554666010373846,2.7162592639597656,1.1772458233758802
174,-0.33413679538721164,-2.663288055391665,-0.2011414157581893,3.485129865618596,1.504253952663305
175,-0.38740255649504496,-3.246510514004468,-0.1314388184458174,4.2835885526035735,1.498280749738494
176,-0.45233276677513434,-2.768747767419602,-0.04576704739374593,3.534594114395831,0.014962898738122166
177,-0.5077077221235264,-2.774246220191511,0.02492483489417069,3.529382342117918,1.1249423392217082
178,-0.5631926465273567,-2.3544863885654,0.09551248173652906,2.907265308322402,0.1871174116705966
179,-0.6102823742986647,-2.273009372232892,0.1536577879029771,2.813644818072248,0.7957881820542162
180,-0.6557425617433226,-1.913042989184287,0.20993068426442207,2.3250548383681537,0.3631473888178332
181,-0.6940034215270083,-1.7197653747298642,0.25643178103178516,2.102770706081734,0.5448826294153444
182,-0.7283987290216056,-1.3971464432761933,0.2984871951534198,1.7092336196667208,0.7734569649159359
183,-0.7563416578871295,-0.8336672198691857,0.33267186754675426,0.9878462236846939,0.47482474163844257
184,-0.7730150022845131,-0.2569178216203142,0.35242879202044813,0.2661655933032182,0.14378604676482845
185,-0.7781533587169194,0.30479181282668155,0.3577521038865125,-0.423129986377657,0.16605776597976057
186,-0.7720575224603857,0.860148526637156,0.3492895041589594,-1.1004727065566944,0.46216619704407974
187,-0.7548545519276426,1.4058944538788443,0.3272800500278255,-1.7690444904253606,0.6966490634980617
188,-0.7267366628500658,1.9099845515974174,0.2918991602193183,-2.3905323709953925,1.0831276256293592
189,-0.6885369718181175,2.489490831852894,0.24408851279941043,-3.1384164763122833,1.4100440190532637
190,-0.6387471551810596,3.071329298741761,0.18132018327316476,-3.9142523455035425,0.401835584219339
191,-0.5773205692062244,2.9363958568954236,0.10303513636309392,-3.662153721432185,0.7147117507661629
192,-0.518592652068316,2.684774345886243,0.029792061934450206,-3.25648437865376,0.25486022578830003
193,-0.4648971651505911,2.5866462115422473,-0.035337625638625,-3.100599923187283,1.3373184215532687
194,-0.41316424091974613,2.0534773277272507,-0.09734962410237066,-2.3117329904127257,0.7948007724696665
195,-0.3720946943652011,2.4519008613476627,-0.14358428391062517,-2.9351142514840802,1.33422196089065
196,-0.3230566771382478,1.8926179892860315,-0.20228656894030678,-2.1468917946453105,1.0784832168810965
