,X,v,theta,theta_dot,energy
0,0.0,0.0,0.5235987755982988,0.0,0.0
1,0.0,0.5116096547882443,0.5235987755982988,-0.51760043680201,0.27616190643322963
2,0.010232193095764886,1.0443209353130425,0.5132467668622586,-1.0626126895275305,0.5547966662078639
3,0.031118611802025735,1.5696477143443757,0.49199451307170794,-1.6047177655872331,0.9028893543346523
4,0.06251156608891326,2.140901830620366,0.4599001577599633,-2.2210852262489413,1.1896802379934697
5,0.10532960270132058,2.695661204278403,0.41547845323498445,-2.836267949931617,1.545777531652847
6,0.15924282678688864,3.2720280188513686,0.3587530942363521,-3.5085985480205695,1.7551284960013336
7,0.224683387163916,3.8152993341563786,0.2885811232759407,-4.168399299303,2.1789753121691655
8,0.3009893738470436,4.39812284451496,0.20521313728988072,-4.922813610699145,2.3251992517510294
9,0.3889518307373428,3.8586500922844995,0.10675686507589782,-4.070673558652308,1.8334094997641548
10,0.4661248325830328,3.3724155316532913,0.02534339390285166,-3.314147060130116,1.0004730952482284
11,0.5335731432160986,3.6752674803703234,-0.04093954729975066,-3.760828942248861,2.1029327759865035
12,0.6070784928235051,3.089995078789981,-0.11615612614472788,-2.895688809937216,1.164788829550459
13,0.6688783943993047,2.7071329977244845,-0.1740699023434722,-2.359338745934108,0.9495399774312487
14,0.7230210543537945,3.0638836689856426,-0.22125667726215437,-2.9372964537909256,1.5828131221478896
15,0.7842987277335074,2.5407361822999754,-0.28000260633797286,-2.236224833400844,1.4662253327382964
16,0.8351134513795069,1.9610704391832878,-0.3247271030059897,-1.4818383845448846,0.9365860749095203
17,0.8743348601631726,1.4867215633463586,-0.3543638706968874,-0.9013015714062695,0.8690573865970826
18,0.9040692914300998,0.9108216456326013,-0.3723899021250128,-0.19314110991521993,0.5415902473730432
19,0.9222857243427519,0.33587216012488574,-0.3762527243233172,0.5032032420008167,0.21431217852842252
20,0.9290031675452496,-0.2390043805717723,-0.36618865948330087,1.1971707076184122,0.11278022132192847
21,0.9242230799338141,-0.8146759071253623,-0.34224524533093265,1.8981569739664979,0.4360869858750428
22,0.9079295617913069,-1.3871309156238332,-0.3042821058516027,2.6083716599391806,0.728664337580931
23,0.8801869434788302,-1.9397673138478526,-0.25211467265281906,3.3111611266221797,0.8073364533505057
24,0.8413915972018732,-2.376301589528538,-0.18589145012037547,3.8719233665530535,0.7532926519001908
25,0.7938655654113024,-2.0435187232562626,-0.10845298278931441,3.3270110279164062,0.1835831651121427
26,0.7529951909461772,-1.9485984322686951,-0.04191276223098628,3.153644406035415,0.46094247432122354
27,0.7140232223008033,-1.6993343328830655,0.02116012588972202,2.7677578720847653,0.7719606287385588
28,0.6800365356431419,-1.2209189268117744,0.07651528333141733,2.0565160279628936,0.6767325807243187
29,0.6556181571069064,-0.636580567534402,0.1176456038906752,1.205046582414262,0.3493602466601757
30,0.6428865457562184,-0.05330808336024173,0.14174653553896044,0.37069353547272355,0.021895657161961582
31,0.6418203840890135,0.5269295156058793,0.14916040624841492,-0.4493997872350818,0.30402942162698265
32,0.6523589744011311,1.1092760317448076,0.1401724105037133,-1.269529443047944,0.6312239538842607
33,0.6745444950360273,1.6920451593353882,0.11478182164275441,-2.0940334996960566,0.9583725236581303
34,0.708385398222735,2.275709062265635,0.07290115164883328,-2.9300966078572053,1.285601078102208
35,0.7538995794680478,2.8604162176442203,0.01429921949168917,-3.783413809998749,1.5467391551948484
36,0.8111079038209321,2.29914115470966,-0.0613690567082858,-2.9373834588176595,0.41310360442037664
37,0.8570907269151253,2.113500264424382,-0.120116725884639,-2.6774775036103855,0.4738305655358286
38,0.899360732203613,1.8826763110821938,-0.1736662759568467,-2.3689657820486123,0.4338151801824437
39,0.9370142584252569,1.6465263932610492,-0.22104559159781895,-2.070870821235485,0.6603480906952247
40,0.9699447862904779,1.2358550876834218,-0.26246300802252864,-1.5343115590419538,0.6228371704674418
41,0.9946618880441463,0.7214932861929408,-0.2931492392033677,-0.8654724580630407,0.3640946168891674
42,1.009091753768005,0.209010198657537,-0.31045868836462853,-0.21449945207255794,0.11101387989650088
43,1.0132719577411557,-0.3254377718146243,-0.3147486774060797,0.45903175161777465,0.17866990127475635
44,1.0067632023048632,-0.8877883211613039,-0.3055680423737242,1.1701029190585894,0.5021298251788527
45,0.9890074358816371,-1.4656150497814122,-0.28216598399255244,1.9082468581679537,0.8291196473177415
46,0.9596951348860089,-2.044848975796544,-0.24400104682919338,2.660878324362455,1.1560563888122675
47,0.918798155370078,-2.6260395189187182,-0.19078348034194428,3.435814494188328,1.015398752568229
48,0.8662773649917037,-3.0252761849370584,-0.12206719045817772,3.968053151977433,1.020120735151596
49,0.8057718412929625,-2.676041540876607,-0.04270612741862906,3.4123004471090304,1.118285616700348
50,0.7522510104754304,-2.243198986571326,0.02553988152355155,2.7510768083862653,0.6056570756857289
51,0.7073870307440039,-1.964452337766549,0.08056141769127687,2.3406011034637904,0.6389379833033378
52,0.6680979839886729,-1.6299502349324313,0.12737343976055268,1.8641347386175529,0.8992124409066062
53,0.6354989792900243,-1.064587654935043,0.16465613453290373,1.060307516386688,0.6102786247686097
54,0.6142072261913234,-0.48250530063501007,0.1858622848606375,0.2471836338346649,0.254289008677731
55,0.6045571201786232,0.039796456497246724,0.1908059575373308,-0.46844636275904006,0.010337117005543383
56,0.6053530493085681,0.5701808114783965,0.18143703028215,-1.193827352328273,0.3100169089219505
57,0.6167566655381361,1.1518664032584265,0.15756048323558453,-1.9989832396870844,0.5857378870866096
58,0.6397939936033047,1.6874477391995482,0.11758081844184284,-2.7462725214903068,0.930802347656974
59,0.6735429483872957,2.2670027503161627,0.06265536801203671,-3.5751134271536316,1.2627546044542113
60,0.7188830033936189,1.6816893680046596,-0.008846900531035928,-2.680457483182962,0.6380771618079472
61,0.752516790753712,2.0808142950542834,-0.062456050194695176,-3.2817223998103113,1.1490976100429287
62,0.7941330766547977,1.501057299276301,-0.1280904981909014,-2.432132617177013,0.3874892547375774
63,0.8241542226403238,1.2308410902479403,-0.17673315053444166,-2.0676845857813504,0.17668091797441307
64,0.8487710444452826,1.0815501088215345,-0.21808684225006866,-1.8989257829287123,0.5134560931609834
65,0.8704020466217133,0.5834142750373605,-0.25606535790864293,-1.2330314005237069,0.2607014785344125
66,0.8820703321224604,0.10832396849377357,-0.28072598591911707,-0.6180953167259562,0.044777874233316035
67,0.8842368114923359,-0.4218132433506492,-0.2930878922536362,0.06452814845505839,0.25140280664557274
68,0.8758005466253229,-0.9996842356344815,-0.291797329284535,0.8094313328996893,0.5779891707132851
69,0.8558068619126333,-1.5771499646260347,-0.2756087026265412,1.5544381382582348,0.9053234177383177
70,0.8242638626201126,-2.1562637679465513,-0.2445199398613765,2.310317955656579,1.201573589028751
71,0.7811385872611816,-2.7225008772395975,-0.1983135807482449,3.0632337644778915,1.5511424049381708
72,0.7266885697163896,-3.3052451196296757,-0.13704890545868706,3.86229486666855,0.6281686320982064
73,0.6605836673237961,-3.109797713156247,-0.059803008125316054,3.5317063138643237,0.2701198451708209
74,0.5983877130606712,-3.0203402659441423,0.010831118151970423,3.3801884170681036,1.388291900650176
75,0.5379809077417883,-2.5479377026003602,0.0784348864933325,2.6748104223862597,0.3113770786379347
76,0.4870221536897811,-2.4234012290260187,0.1319310949410577,2.5116162514623275,0.9421580775090057
77,0.4385541291092607,-2.027163303557014,0.18216341997030425,1.9610998152175325,0.8883934809638381
78,0.39801086303812044,-1.5833012122904129,0.2213854162746549,1.3595831821731463,0.8772080999420614
79,0.36634483879231217,-1.0260922477925147,0.24857707991811784,0.6087253955806424,0.5492873175636128
80,0.34582299383646187,-0.495515924600643,0.2607515878297307,-0.09034562483689179,0.29969080805595216
81,0.335912675344449,0.08346391693774169,0.25894467533299287,-0.8536628568766482,0.025653055333443676
82,0.3375819536832039,0.6231018946427184,0.2418714181954599,-1.5608513271131774,0.3323757028231538
83,0.35004399157605826,1.203260514545926,0.21065439165319635,-2.335339001363487,0.6593848649772848
84,0.37410920186697677,1.7849454950818107,0.1639476116259266,-3.1271032718129925,0.8273897008360123
85,0.409808111768613,2.274220000804574,0.10140554618966675,-3.803188804098566,0.9985591393136833
86,0.4552925117847045,1.8110280630269018,0.025341770107695435,-3.0822079572742878,0.5960220866892382
87,0.4915130730452425,1.4629197848120976,-0.036302389037790324,-2.5527635157373774,0.41830190800966616
88,0.5207714687414845,1.766122260666501,-0.08735765935253786,-3.017938136127444,0.9771269834299238
89,0.5560939139548146,1.1820433259192824,-0.14771642207508673,-2.170811094412901,0.17762745588572934
90,0.5797347804732003,1.0239552239650451,-0.19113264396334476,-1.9795322330002674,0.32455720265069243
91,0.6002138849525012,0.6884893022021528,-0.23072328862335012,-1.5413482395155487,0.2373783062649093
92,0.6139836709965443,0.3193608941968259,-0.2615502534136611,-1.0695602128560378,0.13415193175907203
93,0.6203708888804808,-0.15525334523500006,-0.2829414576707819,-0.45787314907560916,0.09338585436666831
94,0.6172658219757807,-0.6685285378864121,-0.2920989206522941,0.19934735276123117,0.34526001465682166
95,0.6038952512180524,-1.1720112740198292,-0.28811197359706947,0.8379202685024103,0.6402068281376555
96,0.5804550257376558,-1.715195054847864,-0.2713535682270213,1.5355746561462547,0.8366257650268198
97,0.5461511246406986,-2.204911384740489,-0.2406420751040962,2.164467814681774,1.162587157826973
98,0.5020528969458888,-2.7382993548856787,-0.1973527188104607,2.8714276124343723,1.5657894723359282
99,0.44728690984817526,-3.32084628595519,-0.13992416656177326,3.670640555259979,0.09635105991317963
100,0.38086998412907147,-3.3504518464603477,-0.06651135545657368,3.6736112757563983,1.2269206557414218
101,0.3138609471998645,-2.9745069900909917,0.006960870058554294,3.091400924520059,0.3364874209212151
102,0.2543708073980447,-3.0903733509713605,0.06878888854895547,3.267242734511691,1.5045755059032984
103,0.19256334037861747,-2.591984838146444,0.1341337432391893,2.541636002919966,0.37099881870871426
104,0.1407236436156886,-2.447163005869795,0.18496646329758865,2.365671711364078,0.7334013377156607
105,0.09178038349829269,-2.143984501814657,0.23227989752487022,1.9727317823811479,0.6600397268530588
106,0.04890069346199955,-1.834497727733031,0.2717345331724932,1.5886467961377164,1.059153452986208
107,0.012210738907338932,-1.2552324819060137,0.3035074690952475,0.8305419791867247,0.6900860170926191
108,-0.012893910730781343,-0.7105175810619728,0.320118308678982,0.13868220925419117,0.37478088725936237
109,-0.0271042623520208,-0.19951874745863385,0.3228919528640658,-0.49636096167912147,0.13256990092502227
110,-0.031094637301193474,0.377357853616167,0.3129647336304834,-1.2236686400063745,0.18373632019594466
111,-0.023547480228870134,0.9226808769905995,0.28849136083035587,-1.911402622473504,0.5033623681580492
112,-0.0050938626890581415,1.5017197102952409,0.2502633083808858,-2.660422154396261,0.830290424124157
113,0.024940531516846675,2.082746949434454,0.19705486529296057,-3.4320003463114843,0.38820848876639014
114,0.06659547050553576,2.2780520578366734,0.1284148583667309,-3.661728605247106,1.132838774071562
115,0.11215651166226923,1.7553196926032368,0.055180286261788766,-2.846435926886713,0.6011733135843675
116,0.14726290551433396,2.115593322394322,-0.0017484322759454968,-3.369809069553294,1.1355109136045525
117,0.1895747719622204,1.5511202327028943,-0.06914461366701137,-2.5236147680452525,0.11055130402980534
118,0.22059717661627828,1.476646327391751,-0.11961690902791641,-2.4324831691824063,0.7646815421267946
119,0.2501301031641133,0.9325735257146138,-0.16826657241156454,-1.65728910484097,0.3985039531627097
120,0.2687815736784056,1.3864107841156275,-0.20141235450838393,-2.3776676264857315,0.7686441693342172
121,0.29650978936071815,0.8044568008065203,-0.24896570703809856,-1.581198623485451,0.3969476587939536
122,0.3125989253768485,0.2827713788335072,-0.28058967950780755,-0.8952396572252126,0.14060611986091182
123,0.31825435295351867,-0.2732322175945612,-0.2984944726523118,-0.17526544770571795,0.16850545565199668
124,0.31278970860162747,-0.8509201585599155,-0.3019997816064262,0.5664887133258966,0.4957758848919068
125,0.2957713054304292,-1.4285674701381441,-0.2906700073399083,1.3063018837718887,0.8228790341336301
126,0.2671999560276663,-2.0069963414764773,-0.2645439696644705,2.053290658136705,0.8777989696389684
127,0.22706002919813673,-2.449106346520633,-0.2234781565017364,2.6165134506488283,1.3738060252110302
128,0.17807790226772408,-3.02005547956411,-0.17114788748875984,3.3864829930022715,1.512956979424017
129,0.11767679267644188,-3.5332002486362564,-0.1034182276287144,4.09488232195281,1.6542161576312857
130,0.04701278770371675,-3.051677819380129,-0.02152058118965819,3.34610697821281,0.10620195341485057
131,-0.014020768683885826,-3.0873359553078883,0.045401558374598014,3.393255234172445,1.2211230900511238
132,-0.0757674877900436,-2.6814375802766754,0.11326666305804692,2.7983785459464126,0.08366125795183259
133,-0.1293962393955771,-2.6502747881937005,0.16923423397697518,2.785163126784542,1.3123156922233155
134,-0.1824017351594511,-2.1456054670675817,0.224937496512666,2.0884913859686334,0.358995045643064
135,-0.22531384450080275,-1.97783101366227,0.2667073242320387,1.908744911797553,0.6516329715451521
136,-0.26487046477404813,-1.6466690773529362,0.30488222246798974,1.50705052777032,0.8079042154241879
137,-0.29780384632110685,-1.1550108712253762,0.33502323302339615,0.8918275913519441,0.6701087579397738
138,-0.32090406374561437,-0.5784040457252604,0.352859784850435,0.1716686388273937,0.34265179993400824
139,-0.3324721446601196,-0.002709820536398344,0.3562931576269829,-0.5370670688679964,0.011390235621622752
140,-0.33252634107084755,0.42241765319858815,0.34555181624962295,-1.0321608942073726,0.22686819361048366
141,-0.3240779880068758,0.9987270376878332,0.3249085983654755,-1.7459428818718106,0.5416527908482599
142,-0.30410344725311916,1.563595699919298,0.2899897407280393,-2.45506358718361,0.7837464410228464
143,-0.2728315332547332,2.0834244880688195,0.24088846898436708,-3.1181829395898077,0.8877922860033098
144,-0.2311630434933568,2.525879959856487,0.17852481019257094,-3.6925649562367893,0.4118371211921689
145,-0.1806454442962271,2.3558594763506235,0.10467351106783515,-3.3893795657323293,0.44234140625489693
146,-0.13352825476921462,2.1597336774359372,0.036885919753188556,-3.066083195193629,0.19100501735506573
147,-0.09033358122049587,2.0673197512135153,-0.02443574415068403,-2.9167145954898777,0.7320409392412706
148,-0.04898718619622556,1.6983855326956552,-0.08277003606048158,-2.37066187286229,0.37510290669730534
149,-0.015019475542312456,1.928977721785826,-0.13018327351772738,-2.739672628188348,1.072914381694794
150,0.023560078893404064,1.3509941313378109,-0.18497672608149435,-1.9181993504826158,0.02041208490097309
151,0.05057996152016028,1.3372259372365705,-0.22334071309114667,-1.9519729315104957,0.7227637872661297
152,0.07732448026489169,0.777899683897629,-0.2623801717213566,-1.198939208475939,0.09672843304183017
153,0.09288247394284427,0.6516648462377275,-0.28635895589087534,-1.0923251862621588,0.3221534262816445
154,0.10591577086759882,0.13802871827826968,-0.3082054596161185,-0.4362885321091283,0.06549156608958993
155,0.10867634523316422,-0.3905357363916473,-0.31693123025830106,0.23001415028382577,0.22835627721156707
156,0.10086563050533127,-0.9675698310511851,-0.31233094725262456,0.9608319077968609,0.5555293388681788
157,0.08151423388430758,-1.5450293128151893,-0.29311430909668734,1.6947751883343596,0.8825499971968371
158,0.050613647628003786,-2.1237029511049754,-0.25921880533000013,2.440816939769804,1.209487188172245
159,0.008139588605904274,-2.7042145519960203,-0.21040246653460404,3.207132741861664,1.4933306289461001
160,-0.04594470243401613,-3.270506765987161,-0.14625981169737073,3.976435415112362,0.530806368046369
161,-0.11135483775375936,-3.103399764244482,-0.06673110339512349,3.685603954454329,0.694972610495005
162,-0.173422833038649,-2.872469277195568,0.006980975693963096,3.3203748077881263,0.08824521655841425
163,-0.23087221858256035,-2.840862302165881,0.07338847184972562,3.2750178906738845,0.9865280844641022
164,-0.28768946462587797,-2.4838702462529736,0.13888882966320332,2.762528041886872,0.5434873459408627
165,-0.3373668695509374,-2.260449851194425,0.19413939050094076,2.471326771743411,0.5109823121494443
166,-0.3825758665748259,-2.0308579843008157,0.24356592593580897,2.190127735060317,1.0157907764549088
167,-0.4231930262608422,-1.5230418987258745,0.2873684806370153,1.521788984966541,0.8742088717088113
168,-0.4536538642353597,-0.9443354094193467,0.3178042603363461,0.7726540395172181,0.5466357597062592
169,-0.47254057242374664,-0.36716829095669834,0.3332573411266905,0.042126404997611555,0.18997404286710975
170,-0.4798839382428806,0.13177549469952116,0.3340998692266427,-0.5689386672398022,0.05902914127083672
171,-0.4772484283488902,0.6600095933400185,0.32272109588184666,-1.2210692721321572,0.33344421914700606
172,-0.4640482364820898,1.188061162094882,0.2982997104392035,-1.8790147598603113,0.5611270499643215
173,-0.44028701324019215,1.6769418262692586,0.26071941524199727,-2.49354526783757,0.7975099562109608
174,-0.40674817671480695,2.1691482861160667,0.21084850988524587,-3.131117557540648,1.2125142929500958
175,-0.36336521099248564,2.7493333048138053,0.1482261587344329,-3.920590473117418,1.505542309010177
176,-0.3083785448962095,2.179331932404791,0.06981434927208453,-3.0315447638431574,0.9259238375467842
177,-0.2647919062481137,2.621255233754188,0.009183453995221386,-3.6723061577948846,1.4726598142768008
178,-0.21236680157302995,2.0358821196939587,-0.06426266916067631,-2.791583614864166,1.0417154566358524
179,-0.17164915917915077,1.5042488691638485,-0.12009434145795964,-2.014660006683797,0.7941084940194117
180,-0.1415641817958738,2.052973948288694,-0.1603875415916356,-2.8670421288500014,1.154996080482212
181,-0.1005047028300999,1.469676862827276,-0.21772838416863563,-2.050278050526129,0.8274725099804966
182,-0.07111116557355439,0.8884344106206666,-0.2587339451791582,-1.2625060801741466,0.08239315540882984
183,-0.053342477361141054,0.7955470881505413,-0.28398406678264115,-1.2030346846099274,0.3889369112092288
184,-0.03743153559813023,0.291371240638847,-0.3080447604748397,-0.5594353136806004,0.14700667033350354
185,-0.03160411078535329,-0.23780819633842587,-0.3192334667484517,0.10783008005503969,0.13989168562087975
186,-0.036360274712121804,-0.8147461482716906,-0.3170768651473509,0.8372447963471917,0.46709340058280935
187,-0.05265519767755562,-1.3919707044628242,-0.30033196922040706,1.5682540275378791,0.7162203001410814
188,-0.08049461176681211,-1.9132239809794178,-0.26896688866964946,2.228159518026831,1.0890108966380838
189,-0.11875909138640046,-2.493206180237444,-0.22440369830911283,2.9887274794086043,1.3791663519880857
190,-0.16862321499114935,-3.060134294736393,-0.16462914872094075,3.752375379780026,0.6447644375052889
191,-0.22982590088587723,-3.277226376399376,-0.08958164112534024,4.02542798204862,1.2476563983054896
192,-0.29537042841386474,-2.884244669144164,-0.009073081484367848,3.4120172688838393,0.31548774287761755
193,-0.35305532179674803,-2.7714418885790195,0.05916726389330894,3.2401526131420564,0.5890664441314218
194,-0.4084841595683284,-2.552789510223926,0.12397031615615006,2.9301329940711787,0.5962080492918508
195,-0.45953994977280693,-2.3135404925645697,0.18257297603757364,2.6103676236043443,0.6332878916787957
196,-0.5058107596240984,-2.0344074013964653,0.23478032850966052,2.2520056124222343,0.6115360198200203
197,-0.5464989076520277,-1.729444830330547,0.2798204407581052,1.8755045422682355,0.6913021921416381
