,X,v,theta,theta_dot,energy
0,0.0,0.0,0.6981317007977318,0.0,0.0
1,0.0,0.5382241212699294,0.6981317007977318,-0.42947583862929395,0.3139295869809147
2,0.010764482425398587,1.0996700054252817,0.6895421840251459,-0.885635030885295,0.6410314245718821
3,0.03275788253390422,1.6618351366443422,0.67182948340744,-1.3491940213042697,0.9679957869607891
4,0.06599458526679107,2.225346114438536,0.6448456029813546,-1.8277796226690957,1.1999683933093859
5,0.11050150755556179,2.7490519855474336,0.6082900105279727,-2.2788763271283003,1.597636700172856
6,0.16548254726651046,3.31701586840371,0.5627124839854067,-2.8099948559056163,1.9242753258721919
7,0.23182286463458465,3.888126977083597,0.5065125868672944,-3.3777292538494468,2.2508750325358213
8,0.3095854041762566,4.462910534840209,0.4389580017903054,-3.989022882278289,2.577529815456397
9,0.39884361487306075,5.041707369413301,0.3591775441447396,-4.649959916986084,1.2759752273080516
10,0.49967776226132676,5.299240432340117,0.2661783458050179,-4.9082659928214305,2.9291229369862917
11,0.6056625709081291,4.7422296280632805,0.1680130259485893,-4.024838372310055,1.9085560384510274
12,0.7005071634693948,4.335080123391538,0.0875162585023882,-3.3735499711301147,2.076157610268619
13,0.7872087659372256,4.818875210317023,0.02004525907978591,-4.070768352149665,2.7019086704283595
14,0.883586270143566,4.250079236832237,-0.061370107963207396,-3.2118528866341673,2.3973453957683213
15,0.9685878548802108,3.6806995757154666,-0.12560716569589075,-2.3774227151211327,0.8377146093620609
16,1.0422018463945202,3.910211864455728,-0.17315561999831341,-2.755810406679205,2.131542664657984
17,1.1204060836836347,3.3634964474450646,-0.2282718281318975,-1.998654406625922,1.9652637679312286
18,1.187676012632536,2.782586564948934,-0.26824491626441593,-1.2164243121565987,0.060602322168025184
19,1.2433277439315147,2.764301514246808,-0.29257340250754793,-1.2678992347500215,1.2738559157545228
20,1.2986137742164507,2.31185840298347,-0.3179313872025484,-0.7028691995478034,0.7678041074516178
21,1.3448509422761201,1.9899531334873228,-0.33198877119350445,-0.3361152250680065,0.8683105537241895
22,1.3846500049458665,1.5687962447260964,-0.3387110756948646,0.16530323678752468,0.471544669846134
23,1.4160259298403886,1.2836586434550952,-0.33540501095911407,0.471021080063682,0.4157438530762121
24,1.4416991027094905,0.9793892805503119,-0.3259845893578404,0.8052223750377828,0.2548690346006613
25,1.4612868883204968,0.7401508060120348,-0.30988014185708473,1.0510301076644681,0.21602412164805268
26,1.4760899044407374,0.4775689199665372,-0.28885953970379535,1.3364891439700033,0.0015579809196397422
27,1.4856412828400682,0.47814945876967335,-0.26212975682439527,1.251905809014294,0.09998820971427606
28,1.4952042720154617,0.6633530514713254,-0.23709164064410937,0.9074035636342178,0.22615292886919808
29,1.5084713330448882,0.9787793254010654,-0.218943569371425,0.37844640982291056,0.4499098238507016
30,1.5280469195529096,1.42114558878553,-0.2113746411749668,-0.33311873745400034,0.689673299233563
31,1.5564698313286203,1.9009574035513823,-0.2180370159240468,-1.0985004323810879,0.3478528659682058
32,1.594488979399648,1.7211354886554764,-0.24000702457166856,-0.8987499475939017,0.7525769762625029
33,1.6289116891727575,1.289409146958232,-0.2579820235235466,-0.3396093214746303,0.6230996814177022
34,1.6546998721119222,0.818188353036567,-0.2647742099530392,0.2688223742242497,0.43331953289751796
35,1.6710636391726534,0.3149694823839272,-0.25939776246855417,0.9204088732773292,0.0945867948582548
36,1.677363028820332,0.059965321495927926,-0.2409895850030076,1.2147076637698029,0.0025290521577459846
37,1.6785623352502506,0.08453655993501015,-0.21669543172761155,1.1087487485224332,0.017031191359370316
38,1.6802530664489508,0.21097969072334616,-0.1945204567571629,0.860308654388902,0.049679812808286025
39,1.6844726602634177,0.40735396336936236,-0.17731428366938484,0.51447349230118,0.1926320939978727
40,1.692619739530805,0.8454569335810527,-0.16702481382336123,-0.18423507847912923,0.35181720260008204
41,1.709528878202426,1.2569507225379055,-0.17070951539294382,-0.8417633842543584,0.02749379440610181
42,1.7346678926531842,1.2372769309498524,-0.187544783078031,-0.862626838651027,0.2666371836556446
43,1.7594134312721812,1.023321112236169,-0.20479731985105154,-0.602136199584385,0.44853388516808024
44,1.7798798535169045,0.5883155832073255,-0.21684004384273925,-0.02305428210101168,0.2302579111591187
45,1.791646165181051,0.2101052634851398,-0.2173011294847595,0.467723345923449,0.08600867561098255
46,1.7958482704507537,-0.14912885441571472,-0.20794666256629052,0.930517355359576,0.01716611737952323
47,1.7928656933624394,-0.3014824741107489,-0.18933631545909899,1.0934278660955647,0.04067152236140631
48,1.7868360438802244,-0.1423610063886978,-0.1674677581371877,0.8036781767928849,0.02642355990361264
49,1.7839888237524504,0.10192095521660369,-0.15139419460133,0.3933757803859608,0.027908351142087444
50,1.7860272428567825,0.33129622348086435,-0.14352667899361077,0.00890828952213979,0.11276079878935989
51,1.7926531673263997,0.6644873836538101,-0.14334851320316797,-0.5277916189163656,0.03230636809391418
52,1.805942914999476,0.6173577301290515,-0.15390434558149527,-0.4998225137022421,0.1106309505525145
53,1.818290069602057,0.4383783523863313,-0.1639007958555401,-0.2795961900181073,0.1710463118016304
54,1.8270576366497835,0.04956597347565328,-0.16949271965590224,0.2478348823858736,0.001415158943236606
55,1.8280489561192965,0.0292277590004703,-0.16453602200818476,0.22831243459766692,0.0026929613048555937
56,1.828633511299306,-0.034902510579756865,-0.1599697733162314,0.2750530447007591,0.0005510033894059438
57,1.8279354610877108,-0.008873119512028432,-0.15446871242221624,0.1896766895629447,2.830568444591605e-05
58,1.8277579986974701,0.07170154559660898,-0.15067517863095733,0.025020329137672742,0.010131942301094462
59,1.8291920296094024,0.20933494527510577,-0.15017477204820387,-0.2232217559567676,0.043525374771095006
60,1.8333787285149046,-0.0012639919289325063,-0.15463920716733923,0.045135579706446244,6.354656038305069e-05
61,1.8333534486763259,0.08199708114250219,-0.1537364955732103,-0.12354866381889795,0.017594761624180704
62,1.834993390299176,-0.1399923418012639,-0.15620746884958828,0.16048749366903747,0.016328747067902726
63,1.8321935434631507,-0.25755657747237043,-0.15299771897620754,0.2889482687579973,0.01174078895949663
64,1.8270424119137032,-0.30216796100694776,-0.14721875360104758,0.3102776178744225,0.026149844692455446
65,1.8209990526935642,-0.2117244448357551,-0.14101320124355912,0.13295371415660498,0.02163930322545141
66,1.816764563796849,-0.10726959016599905,-0.138354126960427,-0.06349397690228362,0.0023071395960706114
67,1.814619171993529,-0.08490360174002326,-0.13962400649847267,-0.13726884440199066,0.002377836361909584
68,1.8129210999587284,-0.10836645124361141,-0.14236938338651248,-0.14333327923678515,0.02848890282293512
69,1.8107537709338561,-0.3480800640107761,-0.14523604897124817,0.1708838739785061,0.04545031466997344
70,1.8037921696536405,-0.4761008479489909,-0.14181837149167806,0.3183438584188415,0.00819050839770438
71,1.7942701526946607,-0.49139035710405765,-0.13545149432330122,0.2994928980518068,0.025611617371713222
72,1.7844423455525795,-0.43727020460537896,-0.1294616363622651,0.17935516359775902,0.047216543155713275
73,1.775696941460472,-0.32823983936624634,-0.1258745330903099,-0.020777249018053723,0.029327501779533423
74,1.769132144673147,-0.2396353893931036,-0.126290078070671,-0.18954186455758518,0.00048586960024865275
75,1.764339436885285,-0.2397576536019511,-0.1300809153618227,-0.22639059348216117,0.026722997355542778
76,1.759544283813246,-0.3420959017015218,-0.1346087272314659,-0.11231616973877316,0.0630531532726521
77,1.7527023657792156,-0.5171582776957703,-0.13685505062624137,0.10844639017071926,0.05721351466994982
78,1.7423592002253,-0.624037289034905,-0.134686122822827,0.22715601610963482,0.06483375384875613
79,1.729878454444602,-0.7250526286168046,-0.1301430025006343,0.33782865224992464,0.12363412447455192
80,1.7153774018722658,-0.8929432490986091,-0.1233864294556358,0.5493807680189066,0.01058788171673782
81,1.6975185368902936,-0.8793444020349218,-0.11239881409525766,0.49295393860818804,0.13824900670475054
82,1.6799316488495952,-0.7205481789376862,-0.1025397353230939,0.22328691807607176,0.18417481996254367
83,1.6655206852708415,-0.4663736584105863,-0.09807399696157247,-0.1860661303225808,0.098295889744898
84,1.6561932121026297,-0.2631408638082091,-0.10179531956802408,-0.5182379540354125,0.05640515820427647
85,1.6509303948264655,-0.06983074910662165,-0.11216007864873233,-0.8365782357192029,0.014963814718394584
86,1.649533779844333,-0.20389048893703757,-0.12889164336311637,-0.6696581119943046,0.07633976646040123
87,1.6454559700655922,-0.5199499974802877,-0.14228480560300247,-0.23729074331906397,0.21509702443635711
88,1.6350569701159865,-0.9128462746744695,-0.14703062046938375,0.3044073727232852,0.42838916091411605
89,1.616800044622497,-1.374871618941913,-0.14094247301491805,0.9468964016842142,0.595128027717113
90,1.5893026122436589,-1.8082031557771376,-0.12200454498123377,1.5491483267078126,0.5497724174297633
91,1.5531385491281162,-2.1149991039420226,-0.09102157844707752,1.9701410610495398,0.14844371506006582
92,1.5108385670492757,-2.185496070541111,-0.05161875722608672,2.0487253584764713,0.33319242459694454
93,1.4671286456384534,-2.0296450313482017,-0.010644250056557295,1.8000910027417552,1.0662136106010154
94,1.4265357450114893,-1.495495794946749,0.02535756999827781,0.9957831866428837,0.8701571357255161
95,1.3966258291125544,-0.9104964396942542,0.04527323373113548,0.12602058403163596,0.47840836875676795
96,1.3784159003186693,-0.3953581089379137,0.0477936454117682,-0.6325893671030239,0.25445235638202635
97,1.370508738139911,0.18924437370596592,0.035141858069707724,-1.4944457727426044,0.07279884197110036
98,1.3742936256140303,0.7741303813697017,0.005252942614855635,-2.360903531292457,0.2519068329507599
99,1.3897762332414243,1.1426286452667644,-0.04196512801099351,-2.912098943037506,0.6063680850547642
100,1.4126288061467596,0.5575921736585893,-0.10020710687174364,-2.0476509674062258,0.22372720811166244
101,1.4237806496199314,0.08975663139690443,-0.14116012621986815,-1.3788296312314887,0.016701231953195082
102,1.4255757822478696,-0.49302844122498585,-0.16873671884449792,-0.5547104683908686,0.28774958993914457
103,1.41571521342337,-1.0316913577996967,-0.1798309282123153,0.19243501197576518,0.6138494266074984
104,1.395081386267376,-1.6131786855952606,-0.1759822279728,0.9980145711586504,0.9296346910703631
105,1.3628178125554709,-2.1878448854289267,-0.15602193654962698,1.7952282027069626,1.2642147012047988
106,1.3190609148468924,-2.770468508486834,-0.12011737249548773,2.612863587639669,1.587832002425283
107,1.2636515446771557,-3.353022500864094,-0.06786010074269436,3.44516860720107,1.3917355101263724
108,1.196591094659874,-2.928211813863914,0.0010432714013270533,2.7894836406480783,1.0859784379746682
109,1.1380268583825957,-2.5500299968853715,0.05683294421428862,2.2225179456307194,1.0137530708807645
110,1.0870262584448882,-2.1468697445576175,0.10128330312690301,1.6354538471708886,1.1531925081057115
111,1.0440888635537358,-1.6057423578478125,0.13399238007032077,0.8576489041003881,0.9138225416970946
112,1.0119740163967794,-1.0393974822010037,0.15114535815232855,0.05502227314689556,0.6221551145133813
113,0.9911860667527593,-0.4571318809033226,0.15224580361526646,-0.7641510125876263,0.2374580595748792
114,0.9820434291346929,0.01135887305113531,0.13696278336351395,-1.4141710260547622,0.02934244788179293
115,0.9822706065957156,0.5548891383937167,0.1086793628424187,-2.1816901046262593,0.231223543146508
116,0.99336838936359,1.0480117244572134,0.06504556074989351,-2.8851211312811498,0.14108649124944214
117,1.0143286238527343,0.8975476142902796,0.0073431381242705165,-2.640792336715512,0.10996604959710049
118,1.03227957613854,0.7595154263845572,-0.04547270861003973,-2.431590773820361,0.2698033164235978
119,1.0474698846662311,0.35455137257207336,-0.09410452408644696,-1.838136982926184,0.0009602109685449277
120,1.0545609121176727,0.359030395173839,-0.13086726374497065,-1.8724517038709987,0.12191897083126667
121,1.0617415200211495,-0.07174986927660237,-0.16831629782239063,-1.2701718972183271,0.05555059237425925
122,1.0603065226356174,-0.49041015022846635,-0.19371973576675716,-0.700307764292386,0.2873705540914095
123,1.050498319631048,-1.023846348153434,-0.2077258910526049,0.028281546112676748,0.6135530304339119
124,1.0300213926679793,-1.6045111052950154,-0.20716026013035135,0.8199212208659528,0.9407865581594272
125,0.997931170562079,-2.185327245043001,-0.1907618357130323,1.6120473127825297,1.2679020496536157
126,0.954224625661219,-2.7669738489075253,-0.1585208894573817,2.412946228174425,1.5949763967302286
127,0.8988851486830685,-3.3499379094425326,-0.11026196489389319,3.230018187522842,0.3920888712095113
128,0.8318863904942178,-3.468789435536103,-0.04566160114343634,3.374861481672468,1.1911242584466348
129,0.7625106017834957,-3.1181914974536937,0.021835628490013012,2.8360928757984705,0.11389230743682259
130,0.7001467718344219,-3.155500677115385,0.07855748600598242,2.898462468851324,1.4239885274010393
131,0.6370367582921141,-2.69685651764274,0.1365267353830089,2.235690106835219,0.5049602130707997
132,0.5830996279392593,-2.508649416130257,0.1812405375197133,1.9960207232762688,0.976104387980851
133,0.5329266396166541,-2.1178699191027768,0.2211609519852387,1.4724459154194527,1.1003402741690582
134,0.49056924123459855,-1.5993544170986276,0.25060987029362775,0.7781091042516048,0.8996158310339957
135,0.458582152892626,-1.044394223687393,0.2661720523786598,0.044583597294351573,0.5717435066077176
136,0.43769426841887815,-0.5156205447634712,0.26706372432454684,-0.6433118409776166,0.3263245472256253
137,0.42738185752360874,0.0632514603537262,0.2541974875049945,-1.403251559794344,0.0006589599882665804
138,0.42864688673068324,0.5525028009277786,0.2261324563091076,-2.0396139197649577,0.27705272443564555
139,0.4396969427492388,1.1335078732201431,0.18534017791380847,-2.823015884096297,0.6040717387510981
140,0.4623671002136417,1.7162608769203969,0.12887986023188253,-3.6279961314270803,0.9312567009375299
141,0.49669231775204964,1.1314243712554792,0.05631993760334092,-2.7202310309889213,0.11432183673872094
142,0.5193208051771592,1.2416644873844132,0.0019153169835624956,-2.868779709077114,0.6426374638076715
143,0.5441540949248475,0.6774966445721557,-0.05546027719797978,-2.021966394220921,0.294029935974872
144,0.5577040278162906,1.1675970189835763,-0.0958996050823982,-2.7722836060057396,0.6255370896982146
145,0.5810559681959621,0.5832721323881891,-0.151345277202513,-1.9279748862666088,0.25069094352948385
146,0.5927214108437259,0.09348748843729604,-0.1899047749278452,-1.2460217457322655,0.004450860643364684
147,0.5945911606124717,-0.018098143057846253,-0.2148252098424905,-1.1371494147794343,0.028199188967900805
148,0.5942291977513148,-0.4158657798847651,-0.2375681981380792,-0.616886724397659,0.21945887289294677
149,0.5859118821536194,-0.8939609536024717,-0.2499059326260324,0.01092384514457967,0.5360878958396169
150,0.56803266308157,-1.4732974329075499,-0.2496874557231408,0.7802235645339436,0.8146667011701104
151,0.538566714423419,-2.0199454007728894,-0.23408298443246192,1.5021202103303444,1.0195750003161095
152,0.49816780640796116,-2.5244781736248676,-0.20404058022585503,2.170085912377844,1.4116703898791223
153,0.4476782429354638,-3.088223181905716,-0.16063886197829813,2.938589245675705,1.5104664254505802
154,0.3859137792973495,-3.5849272807068515,-0.10186707706478404,3.6270280496133265,1.0833415818029932
155,0.31421523368321247,-3.276015750315212,-0.029326516072517503,3.1361656827768916,0.08060949539773167
156,0.24869491867690824,-3.2507806252886247,0.03339679758302033,3.0897085116740786,0.9427235596874521
157,0.18367930617113576,-2.955301086213945,0.09519096781650191,2.656553184941408,0.5075445932425257
158,0.12457328444685686,-3.130521197220392,0.14832203151533008,2.94613735463746,1.7037934171313587
159,0.06196286050244902,-2.577936133262562,0.20724477860807927,2.1698074374684984,0.48320250255425756
160,0.010404137837197777,-2.390516639415909,0.25064092735744925,1.9551886648870005,0.6140343277776495
161,-0.0374061949511204,-2.1342817424355,0.28974470065518926,1.65576524929897,0.27894070036880836
162,-0.0800918297998304,-2.00626517547474,0.3228600056411687,1.5557426275102268,0.9852835828866084
163,-0.12021713330932521,-1.51782646129928,0.3539748581913732,0.9542199712532174,0.8863726912551677
164,-0.15057366253531082,-0.9418791421792526,0.37305925761643755,0.24576899909124328,0.5588917635437591
165,-0.16941124537889587,-0.3669474022468112,0.3779746375982624,-0.4501570719983624,0.23159910799177158
166,-0.1767501934238321,0.2078445759753782,0.36897149615829516,-1.1429892058253404,0.09550629241337354
167,-0.17259330190432454,0.7833683050816453,0.34611171204178837,-1.8421416581990346,0.422456815996916
168,-0.15692593580269162,1.3604212695326916,0.3092688788778077,-2.5566539403572675,0.6732678644213307
169,-0.1297175104120378,1.8806320848331453,0.25813580007066234,-3.2104666022207384,1.0430628991320179
170,-0.0921048687153749,2.4622518224921084,0.19392646802624758,-3.978938579553205,1.3701494093129583
171,-0.042859832265532735,1.8787362678220025,0.11434769643518349,-3.0634144503880556,0.818917564302153
172,-0.005285106909092681,2.3368821783932328,0.05307940742742237,-3.712600371570815,1.1739639678904594
173,0.04145253665877197,1.8087012927652169,-0.02117260000399393,-2.9058468440359437,0.8341349187892388
174,0.07762656251407632,1.3235237382216778,-0.0792895368847128,-2.184467906646747,0.5840418612281176
175,0.10409703727850987,1.7893107625901559,-0.12297889501764775,-2.904240056472812,0.9953044054218719
176,0.13988325253031297,1.2053244464128001,-0.181063696147104,-2.070941039413677,0.603195389986898
177,0.16398974145856898,0.679673283724155,-0.22248251693537754,-1.3482960976690435,0.04126432163656618
178,0.1775832071330521,0.6176663877885787,-0.24944843888875842,-1.3224497883472215,0.24986292952860495
179,0.18993653488882367,0.18699859788294715,-0.2758974346557029,-0.7690223094244101,0.08443664715498737
180,0.1936765068464826,-0.3433903906053194,-0.2912778808441911,-0.08361560647576527,0.1923271680686252
181,0.18680869903437622,-0.8769193727030689,-0.2929501929737064,0.598537754417881,0.4552059182809296
182,0.16927031158031483,-1.391880403937733,-0.2809794378853488,1.2531695465769648,0.7683521213093208
183,0.14143270350156018,-1.9460503279751078,-0.2559160469538095,1.970300931752935,1.1153902679256749
184,0.10251169694205803,-2.5261431011528854,-0.21651002831875077,2.7376805157375546,1.1738266525951524
185,0.05198883491900032,-2.999490363298391,-0.16175641800399967,3.3679668369630082,1.4234719081509537
186,-0.008000972346967505,-3.4857483647604472,-0.0943970812647395,4.040483099697334,1.7102189813703452
187,-0.07771593964217645,-2.9809926087095358,-0.013587419270792822,3.259008754328887,0.3576578502287138
188,-0.13733579181636718,-3.104108696382346,0.051592755815784916,3.439671260668284,1.2292759803850921
189,-0.1994179657440141,-2.6975659462617574,0.1203861810291506,2.845830102814653,0.3281577195272168
190,-0.25336928466924924,-2.5738673777969425,0.17730278308544367,2.696933291065144,0.8134013818199195
191,-0.3048466322251881,-2.2524415050727593,0.23124144890674656,2.274207308421704,0.5486466152295424
192,-0.34989546232664326,-2.006745122444582,0.27672559507518063,1.9828531393543107,1.0541988959524338
193,-0.3900303647755349,-1.4768451068595696,0.3163826578622668,1.2985659808212204,0.7393883590369771
194,-0.4195672669127263,-0.9764771517477674,0.34235397747869123,0.6767385725698493,0.5488845746000538
195,-0.43909680994768163,-0.42032301606342604,0.3558887489300882,-0.010382334698602391,0.2524592312022576
196,-0.44750327026895015,0.15524639261493745,0.35568110223611615,-0.7171997331737192,0.07041626470793576
