,X,v,theta,theta_dot,energy
0,0.0,-2.0,0.3490658503988659,0.0,1.1535587195206198
1,-0.04,-2.5625061468433965,0.3490658503988659,0.8934282351409282,1.316996040640317
2,-0.09125012293686793,-3.07146041888697,0.36693441510168445,1.7113730179138895,1.5810897911585653
3,-0.15267933131460734,-2.565712225091343,0.40116187545996224,1.1087252045674685,0.8369116117709462
4,-0.2039935758164342,-2.8908389106453893,0.4233363795513116,1.6725000473818128,1.3445421754216802
5,-0.261810354029342,-2.4358880523806743,0.4567863804989478,1.1710925698662544,0.3062338516807903
6,-0.3105281150769555,-2.3175688873453,0.48020823189627293,1.141483387883267,0.6025129325000754
7,-0.3568794928238615,-2.0680125284917366,0.5030378996539383,0.9453039318016279,0.13718207954604345
8,-0.3982397433936962,-2.008746681183752,0.5219439782899709,1.0091520197696067,0.6897168166070654
9,-0.43841467701737125,-1.6787449576402942,0.542127018685363,0.7266366971572014,0.9337569158182804
10,-0.4719895761701771,-1.1433295700472539,0.556659752628507,0.19036289419623675,0.633773300350747
11,-0.4948561675711222,-0.6162154949555686,0.5604670105124318,-0.32560054956517825,0.3767646636572512
12,-0.5071804774702335,-0.04974260097149741,0.5539549995211281,-0.8890252118745033,0.050578011423583154
13,-0.5081753294896635,0.5181143243379589,0.536174495283638,-1.4587665028078023,0.24489157739460726
14,-0.4978130430029043,1.0219387296137494,0.506999165227482,-1.9582597964608073,0.5016498437580914
15,-0.4773742684106293,1.527774989559886,0.4678339692982659,-2.478813578114462,0.7538860812995345
16,-0.4468187686194316,2.0329694383305297,0.41825769773597665,-3.022597891333877,1.1261307923509387
17,-0.406159379852821,2.600892097642819,0.3578057399092991,-3.6816340996322623,1.4652770560863693
18,-0.3541415378999646,3.1809785452980086,0.2841730579166538,-4.393691711288954,1.721763273543488
19,-0.29052196699400445,2.6232589690810286,0.1962992236908747,-3.5082373964162255,1.2790238916877947
20,-0.23805678761238389,3.12748881221821,0.1261344757625502,-4.19271458658271,1.657598164790141
21,-0.1755070113680197,2.5779937559012325,0.042280184030896006,-3.338034843066291,1.0927408454167242
22,-0.12394713624999504,2.138516260190312,-0.024480512830429818,-2.66698105282751,1.198429506350292
23,-0.08117681104618879,2.7182115202210655,-0.07782013388698003,-3.5434599512233915,1.5349263077424002
24,-0.026812580641767482,2.1332635760624097,-0.14868933291144787,-2.6915495500726183,1.1417124381710662
25,0.015852690879480713,1.581816531392803,-0.20252032391290023,-1.9170596709089562,0.0980030383442262
26,0.047489021507336776,1.6476037117991613,-0.24086151733107936,-2.072858480429424,0.8792842500180856
27,0.08044109574332,1.1011020591248308,-0.28231868693966783,-1.3469005086247563,0.23922554237670549
28,0.10246313692581663,0.8818238422837295,-0.30925669711216297,-1.1129078257329097,0.3614283966631364
29,0.12009961377149123,0.465542645896814,-0.33151485362682115,-0.6075876649314249,0.25752903066309674
30,0.12941046668942752,-0.09748491588951264,-0.34366660692544965,0.09527884608454318,0.0560435494561846
31,0.12746076837163725,-0.6735189405924933,-0.3417610300037588,0.8097441702069397,0.38324561499165033
32,0.11399038955978738,-1.2498340600204891,-0.32556614659962,1.525687712772787,0.710279620021023
33,0.0889937083593776,-1.827257905592016,-0.2950523923441643,2.2522906933944866,0.9974125407695728
34,0.05244855024753728,-2.3841717478848796,-0.25000657847627455,2.9660702497915414,1.2721148771360244
35,0.004765115289839687,-2.9313572352290898,-0.19068517348044373,3.68859249945978,1.4928822193087001
36,-0.05386202941474211,-3.4564410838884694,-0.11691332349124813,4.406219925038117,1.954052539864402
37,-0.1229908510925115,-2.872204868330459,-0.02878892499048577,3.5015538399668413,0.20088782882092093
38,-0.18043494845912067,-2.799902655978548,0.04124215180885106,3.3846826866698327,0.9920892307763215
39,-0.23643300157869163,-2.4343550802828604,0.10893580554224772,2.8489493366750906,0.5289338650506685
40,-0.2851201031843488,-2.211467777260489,0.16591479227574954,2.5485639955264077,0.5065280603025105
41,-0.3293494587295586,-1.9776509006643708,0.2168860721862777,2.251210412060565,0.6460659108182514
42,-0.36890247674284604,-1.645144680685602,0.261910280427489,1.8274016525007055,0.8587733150662871
43,-0.40180537035655806,-1.1152451862625044,0.29845831347750307,1.1357833501109202,0.6396466106941393
44,-0.4241102740818081,-0.5371969797154149,0.32117398047972145,0.3934933065001036,0.2683862318720605
45,-0.43485421367611643,-0.04175879439727925,0.3290438466097235,-0.21885283876605244,0.030707982364756838
46,-0.435689389564062,0.5348311436916716,0.32466678983440245,-0.9423355148785042,0.2964654633460171
47,-0.42499276669022856,1.111841341720618,0.3058200795368324,-1.6688498151065736,0.5832355083166801
48,-0.4027559398558162,1.6525354848173877,0.2724430832347009,-2.353742875973832,0.9293123096224571
49,-0.36970523015946843,2.2325659623529086,0.22536822571522425,-3.1125870992279134,1.2562606880383613
50,-0.32505391091241026,2.814792809270463,0.16311648373066598,-3.8981434469538114,1.2876299071678772
51,-0.268758054727001,2.3397982112834095,0.08515361479158975,-3.147365316452829,1.106777696939844
52,-0.2219620905013328,2.8306334043376378,0.022206308462533172,-3.8559454651438854,1.366192271509355
53,-0.16534942241458006,2.328713741496021,-0.054912600840344536,-3.0967234751398527,1.3130968532959737
54,-0.11877514758465964,1.743749275531989,-0.1168470703431416,-2.2367355597346625,0.6052634177712756
55,-0.08390016207401986,2.1038711037744866,-0.16158178153783484,-2.8075097944497953,1.1871370417482892
56,-0.041822739998530124,1.5206498200251777,-0.21773197742683076,-1.991371990737075,0.8596096270835081
57,-0.01140974359802657,0.939457467722911,-0.2575594172415723,-1.2036751041565728,0.22252234691077924
58,0.007379405756431652,1.1862867002756463,-0.28163291932470375,-1.636594326802974,0.6175165231510439
59,0.031105139761944577,0.6521756778269749,-0.3143648058607632,-0.9487012725860107,0.34146299159336213
60,0.044148653318484075,0.11491484532671226,-0.33333883131248343,-0.27321281755151894,0.06191449806053869
61,0.046446950225018324,-0.4615249875303683,-0.3388030876635138,0.44765509498702705,0.25618843340001807
62,0.03721645047441096,-1.017685840694357,-0.3298499857637733,1.1367589947288868,0.5811686840443773
63,0.01686273366052382,-1.5946362909786804,-0.30711480586919554,1.8603034640629217,0.740919784669724
64,-0.015029992159049786,-2.065948972056376,-0.2699087365879371,2.445314181491068,1.1748843732248972
65,-0.05634897160017731,-2.646166248415711,-0.22100245295811577,3.205736968275592,1.3049036748792
66,-0.10927229656849152,-3.1521241853359174,-0.15688771359260392,3.8817680630077103,0.30170398250815655
67,-0.17231478027520986,-3.250906088513868,-0.07925235233244972,3.982185107577164,1.4085870022317026
68,-0.2373329020454872,-2.803584488633931,0.00039134981909355604,3.2900329955154746,0.06867044009129564
69,-0.2934045918181658,-2.8288278031927887,0.06619200972940305,3.328013021298039,1.1121086886890308
70,-0.34998114788202156,-2.4240919411030477,0.13275227015536384,2.741684962862646,0.5678036023747794
71,-0.39846298670408253,-2.184573082803435,0.18758596941261677,2.4244824713071624,0.4825996571416312
72,-0.4421544483601512,-1.9599985622742646,0.23607561883876002,2.1483575619662187,0.40650800651689145
73,-0.4813544196056365,-1.7504603580857567,0.2790427700780844,1.911531432364125,0.9242131623391816
74,-0.5163636267673517,-1.2154842771652543,0.3172733987253669,1.2210850551508632,0.6131000838310511
75,-0.5406733123106567,-0.7085636764082721,0.3416950998283842,0.5903763786481877,0.4100000771205561
76,-0.5548445858388222,-0.13234571780825688,0.35350262740134797,-0.12546721079245637,0.081298221749213
77,-0.5574915001949874,0.4340419100612374,0.35099328318549883,-0.8207368818927263,0.23934389170226744
78,-0.5488106619937626,1.0100209833194738,0.3345785455476443,-1.5309445292256045,0.5624393595880477
79,-0.5286102423273731,1.583104392424024,0.3039596549631322,-2.246361279852591,0.780336290293073
80,-0.4969481544788926,2.089814963766232,0.2590324293660804,-2.8835904392010425,1.177330702043815
81,-0.455151855203568,2.670918057426392,0.20136062058205956,-3.650858430279327,1.4405767533316678
82,-0.40173349405504016,3.2296225146621236,0.128343451976473,-4.413181702406559,1.6098724586710225
83,-0.3371410437617977,2.712467288492215,0.040079817928341824,-3.6061995795581083,1.5291515847709252
84,-0.2828916979919534,2.127104390275836,-0.03204417366282035,-2.7170800675391362,0.8016047602411456
85,-0.2403496101864367,2.5175824249299397,-0.08638577501360307,-3.311915804453828,1.420885090018666
86,-0.1899979616878379,1.932844523450914,-0.15262409110267963,-2.463445464991821,1.0935812598348986
87,-0.15134107121881962,1.3497197865133557,-0.20189300040251607,-1.6436236080332756,0.6350085786900844
88,-0.12434667548855251,1.835797155775722,-0.2347654725631816,-2.4168845234712752,1.0377668474582404
89,-0.08763073237303806,1.2546510895092042,-0.2831031630326071,-1.6374663980678743,0.7101220914133769
90,-0.06253771058285398,0.6757065919835152,-0.31585249099396456,-0.8857434801789223,0.3825299602514963
91,-0.04902357874318368,0.09841324696838771,-0.333567360597543,-0.15396416445409977,0.054995004977675364
92,-0.047055313803815925,-0.477079424196615,-0.33664664388662496,0.5654331535571594,0.2716638696947263
93,-0.056596902287748226,-1.0534749944049522,-0.32533798081548176,1.2843796576662745,0.5987538181959153
94,-0.07766640217584728,-1.6306968515574898,-0.2996503876621563,2.010822295987336,0.9257098652838387
95,-0.11028033920699706,-2.2094921524689743,-0.2594339417424096,2.753543610665057,1.1780832732698645
96,-0.15447018225637654,-2.7557381652839177,-0.20436306952910843,3.4700718866082565,1.5601821267931297
97,-0.2095849455620549,-3.338880831482335,-0.13496163179694332,4.26691807967758,1.6754438122215052
98,-0.27636256219170163,-2.820440893312035,-0.04962327020339172,3.456771453303606,0.4434437654103128
99,-0.3327713800579423,-2.982716144050305,0.0195121588626804,3.6853014379969484,1.2965513391459647
100,-0.3924257029389484,-2.5334779144248856,0.09321818762261937,3.017308577140173,0.3215500863317105
101,-0.44309526122744614,-2.4032092092510875,0.15356435916542283,2.850120367812884,0.7903959303592757
102,-0.49115944541246787,-2.065911012056463,0.2105667665216805,2.3950976697065838,0.6318489642810232
103,-0.5324776656535971,-1.7541652573589719,0.25846871991581216,1.9992576823313186,0.5981610082369061
104,-0.5675609708007765,-1.4082502508745582,0.2984538735624385,1.5727673449838806,0.7331968518664916
105,-0.5957259758182677,-0.8811939555553285,0.3299092204621161,0.9035814327623138,0.5054756068734622
106,-0.6133498549293742,-0.3043948436098124,0.3479808491173624,0.1802848104810587,0.17801778141655472
107,-0.6194377518015705,0.27148469197437597,0.3515865453269836,-0.5315057833195614,0.14925565882806832
108,-0.6140080579620829,0.8473113952101017,0.34095642966059236,-1.2411587130909774,0.4763484041960857
109,-0.5970618300578808,1.4239424510866838,0.3161332553987728,-1.958004633083204,0.8032995544636269
110,-0.5685829810361471,2.002144189126425,0.2769731627371087,-2.690925003313709,1.0519539926686163
111,-0.5285400972536186,2.5421942793963788,0.22315466267083453,-3.3897332087936385,1.365000129776738
112,-0.47769621166569104,3.096584250167438,0.15535999849496177,-4.1356340072788145,1.7459246350367887
113,-0.41576452666234226,2.5126310059792423,0.07264731834938547,-3.2247616195759417,1.2794145875295058
114,-0.3655119065427574,3.0396433633657582,0.008152085957866637,-3.9918555099711903,1.7150010536601987
115,-0.30471903927544225,2.4542901813570595,-0.07168502424155718,-3.1114582254662695,1.3881777608123391
116,-0.25563323564830104,1.8694918998707601,-0.13391418875088257,-2.2575710357564853,0.03468948518242594
117,-0.21824339765088585,1.8516082918839565,-0.17906560946601227,-2.2702389989480785,0.9707787185580942
118,-0.18121123181320672,1.313434819341933,-0.22447038944497383,-1.5282508385984879,0.5078879716251641
119,-0.15494253542636807,1.71228002610965,-0.2550354062169436,-2.176950864075326,0.9702611995589393
120,-0.12069693490417507,1.1319513455335675,-0.2985744234984501,-1.4087847164948601,0.47959981516904093
121,-0.09805790799350372,0.7012661837416563,-0.3267501178283473,-0.8778217577355916,0.3613092037015294
122,-0.0840325843186706,0.17813179022461412,-0.3443065529830591,-0.2290026156651802,0.09393456223165933
123,-0.08046994851417831,-0.3572553173698002,-0.34888660529636273,0.42770710022458946,0.20337428472916755
124,-0.08761505486157431,-0.9331504600153862,-0.34033246329187095,1.1390022687293166,0.5304927088459729
125,-0.10627806406188203,-1.5097254369679063,-0.3175524179172846,1.8561221102976222,0.8574623954487394
126,-0.13647257280124014,-2.0877630610322924,-0.28042997571133216,2.5880286605519776,1.1843572600692882
127,-0.178227834021886,-2.667871770990319,-0.2286694025002926,3.3428300879111177,1.511303734651988
128,-0.2315852694416924,-3.2503525381112257,-0.16181280074207025,4.1271628592408005,0.7716884809599784
129,-0.2965923202039169,-3.005514284825804,-0.07926954355725423,3.7173373863155135,0.34224090496436665
130,-0.356702605900433,-2.8878002103577107,-0.00492279583094396,3.518039894214878,0.6288768384579417
131,-0.4144586101075872,-2.6628849782079476,0.06543800205335361,3.1792238377864095,0.43561643912153963
132,-0.46771630967174616,-2.494519678084056,0.1290224788090818,2.9464414615671757,0.6304969186489959
133,-0.5176067032334273,-2.2351828052186646,0.1879513080404253,2.598496963484591,0.48357797126624447
134,-0.5623103593378006,-2.014584983835734,0.23992124731011713,2.328360547430594,0.6804386425395964
135,-0.6026020590145152,-1.6709337522738492,0.28648845825872904,1.8975107447015762,0.9079132135772658
136,-0.6360207340599923,-1.1195007091527174,0.32443867315276054,1.18715421376408,0.546953028418811
137,-0.6584107482430466,-0.6276785989341775,0.34818175742804214,0.5816291024818588,0.3617282039286305
138,-0.6709643202217301,-0.05170570485002601,0.3598143394776793,-0.1301784048401715,0.03434801195570527
139,-0.6719984343187306,0.5237198310979231,0.35721077138087587,-0.8345257025232438,0.2928433793870401
140,-0.6615240376967721,1.0994743614562996,0.34052025733041097,-1.5408406369869259,0.6198646368959913
141,-0.6395345504676462,1.6763905740543703,0.30970344459067245,-2.2583366700114222,0.8088238347613004
142,-0.6060067389865588,2.1704631076000096,0.264536711190444,-2.8745822704013273,1.0348584867746753
143,-0.5625974768345585,2.660579296423304,0.20704506578241744,-3.5073127233136416,1.5021238846275415
144,-0.5093858909060924,3.2437238946582476,0.13689881131614462,-4.302910688338975,1.5493231916415675
145,-0.44451141301292746,2.7491858193273564,0.050840597549365124,-3.5279212840355063,1.5494550456113108
146,-0.3895276966263803,2.1652786625480926,-0.019717828131344997,-2.638251555381653,1.1359990030036877
147,-0.34622212337541847,2.7072316877929214,-0.07248285923897806,-3.4568197336518085,1.5306204660345102
148,-0.29207748961956004,2.1222819050288257,-0.14161925391201424,-2.602990247969843,1.2033817094573611
149,-0.24963185151898354,1.538837514999308,-0.1936790588714111,-1.778082205626434,0.4961224627706738
150,-0.21885510121899737,1.871613250828826,-0.22924070298393978,-2.32449914680367,1.0395840992637029
151,-0.18142283620242086,1.3025065637302036,-0.27573068592001315,-1.5599795488357961,0.6276640145634421
152,-0.1553727049278168,0.8122767456306329,-0.3069302768967291,-0.93245287511894,0.42016326994015685
153,-0.13912717001520414,0.2886665315103072,-0.3255793343991079,-0.2725708632887811,0.16393583554591049
154,-0.133353839384998,-0.2802705206521091,-0.33103075166488355,0.44196337334905544,0.15674601311545128
155,-0.1389592497980402,-0.8568335945273033,-0.32219148419790244,1.164298406943746,0.48386614501970804
156,-0.15609592168858627,-1.4340758207259672,-0.29890551605902754,1.8925137493089021,0.6456151744500218
157,-0.18477743810310562,-1.8942326090965274,-0.2610552410728495,2.4655679791686653,0.843467684240205
158,-0.22266209028503617,-2.350892381640753,-0.2117438814894762,3.0514674729201845,1.1531955667485878
159,-0.2696799379178512,-2.8562720417696275,-0.15071453203107252,3.7308176074016077,0.5782040091551526
160,-0.3268053787532438,-3.065709985855137,-0.07609817988304036,3.997270742312951,1.4346573419705837
161,-0.3881195784703465,-2.580722813124803,0.0038472349632186625,3.249544085230868,0.5032440770787606
162,-0.43973403473284256,-2.7825226119426856,0.06883811666783603,3.55337262758746,1.334556117657199
163,-0.4953844869716963,-2.286245985750347,0.13990556921958525,2.8309431925279314,0.8479690932975062
164,-0.5411094066867033,-1.9045694771563726,0.1965244330701439,2.3050205591543937,0.582744664582498
165,-0.5792007962298307,-1.5917324107273783,0.24262484425323178,1.9022045763333237,0.7211916876367804
166,-0.6110354444443782,-1.1296680447439038,0.28066893577989827,1.3000422583356428,0.6438640083257267
167,-0.6336288053392563,-0.5509118550632149,0.3066697809466111,0.5473153070942585,0.3163416998005609
168,-0.6446470424405205,0.026563898948593345,0.3176160870884963,-0.18973010477240548,0.011019640538496097
169,-0.6441157644615486,0.6035680373238822,0.3138214849930482,-0.9201289432718169,0.33820205832365274
170,-0.632044403715071,1.180952035831913,0.29541890612761185,-1.6531499742729578,0.6652293024570709
171,-0.6084253629984328,1.7595113185990798,0.2623559066421527,-2.397799000131867,0.9921675704746914
172,-0.5732351366264512,2.3398831558266004,0.21439992663951535,-3.1623168675381432,1.097175351112621
173,-0.5264374735099192,2.82424425207277,0.1511535892887525,-3.8096720176075993,0.9537748652440743
174,-0.4699525884684638,2.473980487888429,0.07496014893660051,-3.245996788273547,0.8412917808089301
175,-0.4204729787106952,2.826313218955495,0.010040213171129561,-3.7509941048365008,1.5935506652353972
176,-0.3639467143315853,2.240945518727303,-0.06497966892560046,-2.870035037423228,1.2016848559287778
177,-0.31912780395703927,1.6861800066315284,-0.12238036967406503,-2.058733546396906,0.8982911576760916
178,-0.2854042038244087,2.2367637066872508,-0.16355504060200315,-2.914322345550179,1.264058865638962
179,-0.24066892969066367,1.6534841913031695,-0.22184148751300675,-2.0989502513470892,0.8994180201194167
180,-0.20759924586460027,1.0954239649854103,-0.26382049253994855,-1.347061456574815,0.17133994720277343
181,-0.18569076656489206,0.938086597125906,-0.2907617216714449,-1.1958876375799148,0.3559505692575931
182,-0.16692903462237393,0.5520843682321569,-0.31467947442304317,-0.7254720318847845,0.31248166580087317
183,-0.1558873472577308,-0.025173198644387385,-0.3291889150607389,0.006899078297580741,0.012933178308094406
184,-0.15639081123061854,-0.5241863762534265,-0.32905093349478726,0.6201839433651812,0.2884619368489743
185,-0.16687453875568709,-1.0813990431898248,-0.3166472546274836,1.3161561620538966,0.6145856346526699
186,-0.18850251961948358,-1.6589500064840674,-0.29032413138640567,2.0478665821066775,0.9415439863143709
187,-0.22168151974916495,-2.238080961761313,-0.24936679974427212,2.796047793568753,1.2684638582560026
188,-0.2664431389843912,-2.8193090332445987,-0.19344584387289704,3.5683664753229047,1.4778028848656133
189,-0.3228293196492832,-3.3597163140750004,-0.12207851436643895,4.307338549676839,1.4770480242808148
190,-0.3900236459307832,-2.9053231081800273,-0.03593174337290217,3.5950193573561005,0.2772512044221667
191,-0.44813010809438375,-2.8066220580327292,0.035968643774219836,3.436501686286858,0.7643308755853825
192,-0.5042625492550383,-2.52544635590397,0.104698677499957,3.0255834318155745,0.2767461269040016
193,-0.5547714763731177,-2.4130860087718733,0.1652103461362685,2.8886910277518716,0.9223981636324036
194,-0.6030331965485553,-2.0208935221364452,0.22298416669130594,2.356763750497369,0.6757076531291625
195,-0.6434510669912842,-1.6801258539548751,0.27011944170125335,1.923282823832633,0.6037916052529393
196,-0.6770535840703817,-1.3157406579608926,0.308585098177906,1.4749773559564334,0.5309356978857706
